Preliminary design data,,
2161,,
Wavelength (nm),%R,%T
940,0.7413391,0.195699
941,0.7295405,0.2104428
942,0.7021614,0.2376757
943,0.6569565,0.2800578
944,0.5908064,0.3409577
945,0.5015799,0.4228875
946,0.3918368,0.5241835
947,0.2731431,0.6349445
948,0.1656133,0.7370825
949,8.80E-02,0.8130721
950,4.56E-02,0.8570191
951,3.01E-02,0.8757415
952,2.86E-02,0.8806234
953,3.15E-02,0.880534
954,3.43E-02,0.8798105
955,3.63E-02,0.8793398
956,3.85E-02,0.8783354
957,4.22E-02,0.8757986
958,0.0478285,0.8713672
959,5.49E-02,0.865526
960,6.24E-02,0.8593438
961,6.88E-02,0.8540223
962,7.31E-02,0.8505117
963,7.49E-02,0.8493121
964,7.41E-02,0.850459
965,7.11E-02,0.853627
966,6.64E-02,0.8582826
967,6.08E-02,0.8638363
968,5.47E-02,0.8697507
969,4.87E-02,0.875594
970,4.31E-02,0.8810413
971,3.82E-02,0.8858479
972,3.43E-02,0.8898208
973,3.14E-02,0.8928123
974,2.97E-02,0.8947359
975,2.91E-02,0.8955994
976,2.96E-02,0.8955271
977,3.08E-02,0.894758
978,3.24E-02,0.893611
979,3.41E-02,0.892422
980,3.55E-02,0.8914754
981,3.64E-02,0.8909482
982,3.68E-02,0.8908828
983,3.68E-02,0.8911955
984,3.65E-02,0.8917188
985,3.62E-02,0.8922632
986,3.60E-02,0.8926814
987,3.60E-02,0.8929151
988,3.61E-02,0.8930114
989,3.63E-02,0.8931016
990,3.62E-02,0.8933546
991,3.59E-02,0.8939147
992,3.51E-02,0.8948504
993,3.39E-02,0.8961215
994,0.032521,0.8975807
995,3.12E-02,0.8990059
996,3.01E-02,0.9001563
997,2.96E-02,0.9008383
998,0.0297065,0.9009606
999,3.04E-02,0.9005632
1000,3.14E-02,0.8998086
1001,3.25E-02,0.8990899
1002,0.0334506,0.8984857
1003,3.41E-02,0.8981658
1004,3.43E-02,0.8982276
1005,3.41E-02,0.8986751
1006,3.36E-02,0.8994175
1007,3.29E-02,0.9002877
1008,3.23E-02,0.901078
1009,3.20E-02,0.9015858
1010,3.22E-02,0.9016587
1011,3.29E-02,0.9012314
1012,3.41E-02,0.9003441
1013,3.56E-02,0.8991377
1014,3.73E-02,0.8978279
1015,3.88E-02,0.8966641
1016,3.99E-02,0.8958849
1017,4.04E-02,0.8956719
1018,4.01E-02,0.8961186
1019,3.92E-02,0.8972133
1020,3.77E-02,0.8988407
1021,0.0358211,0.9008001
1022,3.39E-02,0.9028388
1023,3.21E-02,0.9046949
1024,3.08E-02,0.9061418
1025,3.01E-02,0.9070272
1026,3.01E-02,0.9072983
1027,3.07E-02,0.9070061
1028,0.0316885,0.9062927
1029,3.30E-02,0.9053598
1030,3.42E-02,0.9044302
1031,3.53E-02,0.9037075
1032,0.0359169,0.9033425
1033,3.61E-02,0.9034114
1034,3.58E-02,0.9039083
1035,3.52E-02,0.9047506
1036,3.43E-02,0.905799
1037,3.34E-02,0.9068843
1038,3.26E-02,0.9078395
1039,3.21E-02,0.9085303
1040,3.19E-02,0.9088775
1041,3.22E-02,0.9088696
1042,3.27E-02,0.9085611
1043,0.0334609,0.9080591
1044,3.43E-02,0.9075006
1045,0.0349884,0.9070269
1046,3.55E-02,0.9067566
1047,3.57E-02,0.9067675
1048,3.55E-02,0.9070839
1049,3.51E-02,0.907676
1050,3.45E-02,0.9084678
1051,3.37E-02,0.9093527
1052,3.30E-02,0.9102136
1053,3.24E-02,0.9109459
1054,3.21E-02,0.9114754
1055,3.20E-02,0.9117709
1056,3.21E-02,0.9118493
1057,0.0324056,0.9117688
1058,3.28E-02,0.9116182
1059,3.31E-02,0.9114969
1060,0.0333385,0.9114958
1061,3.34E-02,0.9116799
1062,3.31E-02,0.912075
1063,3.27E-02,0.9126624
1064,3.22E-02,0.913381
1065,3.16E-02,0.9141369
1066,3.10E-02,0.9148191
1067,3.07E-02,0.9153193
1068,3.06E-02,0.9155512
1069,3.09E-02,0.9154667
1070,3.15E-02,0.9150671
1071,0.0324313,0.9144043
1072,3.35E-02,0.9135748
1073,3.46E-02,0.9127055
1074,3.56E-02,0.9119352
1075,3.64E-02,0.911393
1076,3.68E-02,0.9111797
1077,3.68E-02,0.9113512
1078,3.64E-02,0.9119101
1079,3.57E-02,0.9128027
1080,3.46E-02,0.9139247
1081,3.35E-02,0.9151344
1082,0.0324284,0.9162693
1083,3.16E-02,0.9171693
1084,3.12E-02,0.9177014
1085,3.12E-02,0.9177704
1086,3.18E-02,0.9173419
1087,3.29E-02,0.9164446
1088,3.44E-02,0.9151672
1089,3.62E-02,0.9136472
1090,3.80E-02,0.9120522
1091,3.98E-02,0.9105589
1092,4.14E-02,0.9093318
1093,4.25E-02,0.9085034
1094,4.31E-02,0.9081606
1095,4.32E-02,0.9083358
1096,4.28E-02,0.9090038
1097,4.19E-02,0.9100865
1098,4.07E-02,0.9114619
1099,3.93E-02,0.912978
1100,3.79E-02,0.9144701
1101,3.67E-02,0.9157571
1102,3.58E-02,0.916728
1103,3.52E-02,0.9172908
1104,3.52E-02,0.9173997
1105,3.55E-02,0.9170572
1106,3.63E-02,0.9163119
1107,0.037453,0.9152499
1108,3.88E-02,0.9139835
1109,4.02E-02,0.9126369
1110,4.16E-02,0.9113337
1111,4.29E-02,0.9101838
1112,4.40E-02,0.9092756
1113,4.48E-02,0.9086695
1114,4.52E-02,0.9083967
1115,0.0453422,0.9084594
1116,4.52E-02,0.9088353
1117,0.0447407,0.9094831
1118,4.41E-02,0.910349
1119,4.33E-02,0.9113733
1120,0.0423808,0.9124966
1121,4.14E-02,0.9136645
1122,4.04E-02,0.9148313
1123,3.95E-02,0.9159601
1124,3.86E-02,0.9170234
1125,3.77E-02,0.9180008
1126,3.70E-02,0.9188771
1127,3.63E-02,0.9196395
1128,3.58E-02,0.9202756
1129,3.53E-02,0.9207726
1130,3.51E-02,0.9211156
1131,3.50E-02,0.9212942
1132,3.50E-02,0.921299
1133,3.53E-02,0.9211276
1134,3.58E-02,0.9207859
1135,3.64E-02,0.9202918
1136,3.71E-02,0.9196758
1137,3.80E-02,0.9189805
1138,3.88E-02,0.9182593
1139,3.97E-02,0.9175724
1140,4.04E-02,0.9169828
1141,4.10E-02,0.9165506
1142,4.13E-02,0.9163271
1143,4.14E-02,0.9163507
1144,4.12E-02,0.916642
1145,4.07E-02,0.917201
1146,3.99E-02,0.9180073
1147,3.89E-02,0.9190199
1148,3.78E-02,0.9201817
1149,3.66E-02,0.9214228
1150,3.53E-02,0.9226677
1151,3.42E-02,0.9238418
1152,3.32E-02,0.9248782
1153,3.24E-02,0.925724
1154,3.18E-02,0.9263451
1155,3.15E-02,0.9267285
1156,3.15E-02,0.9268836
1157,3.16E-02,0.9268385
1158,3.20E-02,0.9266374
1159,3.24E-02,0.9263334
1160,3.29E-02,0.9259828
1161,0.0333991,0.9256377
1162,3.38E-02,0.9253402
1163,3.42E-02,0.9251176
1164,3.44E-02,0.9249795
1165,3.46E-02,0.9249172
1166,0.0347194,0.9249052
1167,3.48E-02,0.9249045
1168,3.49E-02,0.9248682
1169,3.51E-02,0.9247478
1170,3.55E-02,0.9244997
1171,3.60E-02,0.9240924
1172,3.67E-02,0.923511
1173,3.75E-02,0.9227618
1174,3.85E-02,0.9218724
1175,3.96E-02,0.9208915
1176,4.08E-02,0.9198849
1177,4.19E-02,0.9189297
1178,4.28E-02,0.9181077
1179,4.36E-02,0.9174977
1180,4.40E-02,0.9171672
1181,4.41E-02,0.9171662
1182,4.38E-02,0.9175214
1183,4.32E-02,0.9182321
1184,4.22E-02,0.9192693
1185,4.09E-02,0.9205753
1186,3.94E-02,0.9220682
1187,3.78E-02,0.9236463
1188,0.036265,0.9251956
1189,3.49E-02,0.9266
1190,0.0337329,0.9277493
1191,0.0329677,0.9285507
1192,3.26E-02,0.9289365
1193,3.28E-02,0.9288712
1194,3.34E-02,0.9283549
1195,3.45E-02,0.9274246
1196,3.60E-02,0.9261506
1197,3.77E-02,0.9246311
1198,3.95E-02,0.9229838
1199,4.14E-02,0.9213362
1200,4.31E-02,0.9198158
1201,0.0444995,0.9186503
1202,4.55E-02,0.9178172
1203,4.61E-02,0.9173808
1204,4.63E-02,0.917379
1205,4.60E-02,0.9178197
1206,4.52E-02,0.918682
1207,4.41E-02,0.9199176
1208,4.26E-02,0.9214539
1209,4.09E-02,0.9231997
1210,3.91E-02,0.9250512
1211,3.73E-02,0.9268996
1212,3.55E-02,0.9286386
1213,3.40E-02,0.930172
1214,0.0328097,0.931421
1215,3.19E-02,0.9323292
1216,3.15E-02,0.9328665
1217,3.14E-02,0.9330305
1218,0.031626,0.9328456
1219,3.22E-02,0.9323596
1220,3.30E-02,0.9316397
1221,3.40E-02,0.9307655
1222,3.51E-02,0.9298228
1223,3.62E-02,0.928897
1224,3.71E-02,0.9280661
1225,3.79E-02,0.9273965
1226,3.85E-02,0.9269384
1227,3.88E-02,0.9267236
1228,3.89E-02,0.9267641
1229,0.0386957,0.9270529
1230,3.83E-02,0.9275657
1231,3.76E-02,0.9282634
1232,3.69E-02,0.9290962
1233,3.60E-02,0.930008
1234,3.51E-02,0.9309408
1235,3.43E-02,0.9318395
1236,3.35E-02,0.9326557
1237,3.29E-02,0.9333518
1238,3.24E-02,0.9339023
1239,3.21E-02,0.9342966
1240,3.19E-02,0.9345372
1241,3.19E-02,0.9346395
1242,3.20E-02,0.9346293
1243,3.21E-02,0.9345397
1244,3.23E-02,0.9344076
1245,3.26E-02,0.9342699
1246,3.28E-02,0.9341602
1247,3.29E-02,0.9341061
1248,3.30E-02,0.9341264
1249,3.29E-02,0.9342296
1250,3.28E-02,0.9344144
1251,3.27E-02,0.9346687
1252,3.24E-02,0.9349723
1253,3.22E-02,0.9352974
1254,0.0319066,0.935613
1255,3.17E-02,0.9358863
1256,3.16E-02,0.9360866
1257,3.15E-02,0.936188
1258,0.0316118,0.9361717
1259,3.18E-02,0.9360282
1260,3.22E-02,0.9357584
1261,3.26E-02,0.9353734
1262,3.32E-02,0.9348941
1263,3.38E-02,0.93435
1264,3.45E-02,0.9337764
1265,3.52E-02,0.9332122
1266,3.58E-02,0.9326971
1267,0.0363154,0.9322683
1268,3.67E-02,0.931958
1269,3.70E-02,0.9317912
1270,3.71E-02,0.9317838
1271,0.0369964,0.9319415
1272,0.036756,0.932259
1273,3.64E-02,0.9327214
1274,3.59E-02,0.933304
1275,3.52E-02,0.9339747
1276,3.46E-02,0.9346965
1277,3.39E-02,0.935429
1278,3.33E-02,0.9361324
1279,3.27E-02,0.9367697
1280,3.22E-02,0.9373093
1281,3.19E-02,0.9377274
1282,3.16E-02,0.9380095
1283,3.16E-02,0.9381512
1284,3.16E-02,0.9381589
1285,3.18E-02,0.9380479
1286,3.21E-02,0.9378422
1287,3.25E-02,0.9375724
1288,3.29E-02,0.9372723
1289,3.33E-02,0.9369773
1290,3.36E-02,0.936721
1291,3.39E-02,0.9365331
1292,3.41E-02,0.9364369
1293,3.41E-02,0.9364477
1294,3.41E-02,0.9365714
1295,3.39E-02,0.9368044
1296,0.0336557,0.9371332
1297,3.33E-02,0.9375359
1298,3.29E-02,0.9379827
1299,3.25E-02,0.9384392
1300,3.22E-02,0.9388676
1301,3.19E-02,0.9392542
1302,3.17E-02,0.9395376
1303,3.16E-02,0.9396865
1304,3.17E-02,0.9396775
1305,3.20E-02,0.9394966
1306,3.24E-02,0.9391413
1307,3.31E-02,0.9386199
1308,3.38E-02,0.9379524
1309,3.47E-02,0.9371687
1310,3.57E-02,0.936307
1311,3.67E-02,0.9354116
1312,3.77E-02,0.9345304
1313,3.87E-02,0.9337115
1314,3.95E-02,0.9330005
1315,4.02E-02,0.9324384
1316,0.0406526,0.9320586
1317,4.09E-02,0.9318849
1318,4.10E-02,0.9319311
1319,4.08E-02,0.9321989
1320,4.04E-02,0.9326791
1321,3.98E-02,0.933351
1322,3.91E-02,0.9341849
1323,3.82E-02,0.935142
1324,3.73E-02,0.9361783
1325,3.63E-02,0.9372455
1326,0.0353003,0.9382951
1327,3.44E-02,0.9392805
1328,3.36E-02,0.9401597
1329,3.29E-02,0.9408981
1330,3.24E-02,0.9414696
1331,3.21E-02,0.9418595
1332,3.20E-02,0.9420638
1333,3.21E-02,0.9420896
1334,0.0323331,0.9419548
1335,3.27E-02,0.941686
1336,3.32E-02,0.9413174
1337,3.37E-02,0.9408876
1338,3.43E-02,0.9404377
1339,3.48E-02,0.9400083
1340,3.53E-02,0.9396372
1341,3.57E-02,0.939357
1342,0.0359147,0.9391935
1343,3.60E-02,0.9391638
1344,3.60E-02,0.9392759
1345,3.59E-02,0.9395285
1346,3.56E-02,0.9399103
1347,3.51E-02,0.940402
1348,0.0346489,0.9409766
1349,3.41E-02,0.9416015
1350,3.35E-02,0.9422406
1351,3.30E-02,0.9428562
1352,3.25E-02,0.9434117
1353,3.21E-02,0.9438739
1354,3.19E-02,0.9442146
1355,3.18E-02,0.9444131
1356,0.0318037,0.944457
1357,3.20E-02,0.9443431
1358,3.24E-02,0.9440779
1359,3.29E-02,0.9436769
1360,3.35E-02,0.9431638
1361,3.42E-02,0.9425691
1362,3.49E-02,0.9419279
1363,3.57E-02,0.9412773
1364,3.64E-02,0.9406575
1365,3.70E-02,0.9401057
1366,3.76E-02,0.9396554
1367,3.80E-02,0.9393348
1368,3.83E-02,0.9391649
1369,3.84E-02,0.9391588
1370,3.83E-02,0.9393208
1371,3.80E-02,0.9396464
1372,3.76E-02,0.9401222
1373,3.71E-02,0.9407271
1374,0.0364897,0.941433
1375,3.58E-02,0.9422064
1376,3.51E-02,0.9430101
1377,3.43E-02,0.9438059
1378,3.37E-02,0.9445553
1379,3.31E-02,0.9452228
1380,3.26E-02,0.9457776
1381,0.032254,0.9461947
1382,3.21E-02,0.9464569
1383,3.21E-02,0.9465556
1384,3.22E-02,0.9464911
1385,3.25E-02,0.9462726
1386,3.30E-02,0.9459174
1387,3.35E-02,0.9454502
1388,3.42E-02,0.9449018
1389,3.49E-02,0.9443059
1390,0.0355777,0.9436997
1391,3.63E-02,0.9431195
1392,0.0368701,0.9426005
1393,3.74E-02,0.9421739
1394,3.78E-02,0.941866
1395,3.80E-02,0.9416963
1396,3.82E-02,0.9416783
1397,3.81E-02,0.9418158
1398,0.0378916,0.9421054
1399,3.75E-02,0.9425359
1400,3.71E-02,0.9430894
1401,3.65E-02,0.9436705
1402,3.58E-02,0.944319
1403,0.0351684,0.9450037
1404,3.45E-02,0.9456918
1405,3.38E-02,0.9463507
1406,3.32E-02,0.9469491
1407,3.27E-02,0.9474593
1408,3.24E-02,0.9478578
1409,3.21E-02,0.9481272
1410,3.20E-02,0.9482567
1411,3.20E-02,0.9482427
1412,3.22E-02,0.9480885
1413,3.25E-02,0.9478051
1414,3.29E-02,0.9474093
1415,3.34E-02,0.9469235
1416,3.40E-02,0.9463744
1417,3.46E-02,0.9457915
1418,3.52E-02,0.9452055
1419,3.58E-02,0.9446468
1420,3.63E-02,0.9441444
1421,0.036776,0.9437235
1422,3.71E-02,0.9434057
1423,3.73E-02,0.943207
1424,3.74E-02,0.9431376
1425,3.74E-02,0.9432013
1426,3.72E-02,0.9433951
1427,3.69E-02,0.9437102
1428,3.65E-02,0.9441316
1429,3.60E-02,0.9446393
1430,3.54E-02,0.9452093
1431,3.48E-02,0.9458141
1432,3.42E-02,0.9464249
1433,3.36E-02,0.9470124
1434,3.31E-02,0.9475486
1435,3.26E-02,0.9480079
1436,3.23E-02,0.948368
1437,3.21E-02,0.9486116
1438,3.20E-02,0.9487277
1439,3.20E-02,0.9487104
1440,3.22E-02,0.9485608
1441,3.25E-02,0.9482862
1442,3.29E-02,0.9479001
1443,3.34E-02,0.9474207
1444,3.40E-02,0.946871
1445,3.46E-02,0.946277
1446,3.52E-02,0.9456669
1447,3.58E-02,0.9450688
1448,3.64E-02,0.9445107
1449,3.69E-02,0.9440184
1450,3.74E-02,0.9436148
1451,0.0376718,0.9433184
1452,3.79E-02,0.9431427
1453,3.79E-02,0.943096
1454,3.79E-02,0.9431811
1455,3.77E-02,0.9433943
1456,3.73E-02,0.9437267
1457,3.69E-02,0.9441639
1458,3.64E-02,0.944687
1459,3.58E-02,0.9452735
1460,3.52E-02,0.9458976
1461,3.45E-02,0.9465325
1462,3.39E-02,0.9471502
1463,3.34E-02,0.9477242
1464,3.29E-02,0.9482297
1465,3.25E-02,0.9486449
1466,3.22E-02,0.948952
1467,3.20E-02,0.9491386
1468,3.19E-02,0.9491974
1469,3.20E-02,0.949127
1470,0.0322458,0.9489315
1471,3.26E-02,0.9486214
1472,3.30E-02,0.9482111
1473,3.35E-02,0.9477198
1474,3.41E-02,0.9471703
1475,3.47E-02,0.9465873
1476,3.53E-02,0.9459971
1477,3.59E-02,0.9454259
1478,3.65E-02,0.9448991
1479,3.69E-02,0.9444395
1480,3.73E-02,0.9440671
1481,3.76E-02,0.9437978
1482,3.78E-02,0.9436432
1483,3.78E-02,0.9436097
1484,3.78E-02,0.943699
1485,3.76E-02,0.9439071
1486,3.73E-02,0.9442255
1487,3.68E-02,0.9446406
1488,3.64E-02,0.9451353
1489,3.58E-02,0.9456891
1490,3.52E-02,0.9462789
1491,3.46E-02,0.9468806
1492,3.40E-02,0.9474694
1493,3.35E-02,0.9480212
1494,3.30E-02,0.948514
1495,3.26E-02,0.9489282
1496,3.23E-02,0.9492479
1497,3.21E-02,0.949461
1498,3.20E-02,0.9495608
1499,3.20E-02,0.9495448
1500,0.0321862,0.9494163
1501,3.24E-02,0.949183
1502,3.28E-02,0.9488572
1503,3.32E-02,0.9484549
1504,0.0336909,0.9479949
1505,3.42E-02,0.9474987
1506,3.47E-02,0.946989
1507,3.53E-02,0.9464884
1508,3.58E-02,0.9460192
1509,3.62E-02,0.9456019
1510,3.66E-02,0.9452549
1511,3.68E-02,0.9449928
1512,3.70E-02,0.9448271
1513,3.71E-02,0.9447649
1514,3.71E-02,0.9448089
1515,3.69E-02,0.9449575
1516,3.67E-02,0.9452045
1517,3.63E-02,0.9455398
1518,3.59E-02,0.9459498
1519,3.55E-02,0.9464176
1520,3.50E-02,0.9469238
1521,3.45E-02,0.947448
1522,0.0339329,0.9479688
1523,3.34E-02,0.948465
1524,3.30E-02,0.9489164
1525,3.26E-02,0.9493052
1526,3.23E-02,0.9496156
1527,0.0320975,0.9498359
1528,3.20E-02,0.9499578
1529,3.20E-02,0.9499773
1530,3.21E-02,0.9498948
1531,3.23E-02,0.9497138
1532,3.26E-02,0.9494442
1533,3.29E-02,0.9490981
1534,3.33E-02,0.9486912
1535,3.38E-02,0.9482412
1536,3.43E-02,0.9477677
1537,3.48E-02,0.9472909
1538,3.53E-02,0.9468309
1539,3.57E-02,0.9464068
1540,3.61E-02,0.9460365
1541,3.64E-02,0.9457351
1542,3.67E-02,0.9455149
1543,3.68E-02,0.9453849
1544,3.68E-02,0.9453503
1545,3.68E-02,0.9454122
1546,3.66E-02,0.9455681
1547,3.64E-02,0.9458115
1548,3.61E-02,0.9461328
1549,3.57E-02,0.9465188
1550,0.0352718,0.946954
1551,3.48E-02,0.9474211
1552,3.43E-02,0.9479014
1553,3.39E-02,0.9483758
1554,3.34E-02,0.9488256
1555,3.30E-02,0.9492334
1556,3.27E-02,0.9495833
1557,0.0323896,0.9498621
1558,3.22E-02,0.9500596
1559,3.21E-02,0.950169
1560,3.21E-02,0.9501872
1561,3.22E-02,0.9501151
1562,3.24E-02,0.9499571
1563,3.26E-02,0.9497214
1564,3.29E-02,0.949419
1565,3.33E-02,0.9490635
1566,3.37E-02,0.9486711
1567,3.41E-02,0.9482589
1568,3.46E-02,0.9478444
1569,3.50E-02,0.9474456
1570,3.54E-02,0.9470791
1571,3.57E-02,0.9467605
1572,3.60E-02,0.9465026
1573,3.62E-02,0.9463162
1574,3.63E-02,0.9462086
1575,3.63E-02,0.9461843
1576,3.62E-02,0.9462441
1577,0.0361103,0.9463854
1578,3.59E-02,0.9466022
1579,3.56E-02,0.9468858
1580,3.53E-02,0.9472245
1581,3.49E-02,0.9476046
1582,3.45E-02,0.948011
1583,0.0340711,0.9484273
1584,3.37E-02,0.9488372
1585,3.33E-02,0.9492245
1586,3.29E-02,0.9495743
1587,3.26E-02,0.9498733
1588,0.0323963,0.9501106
1589,3.22E-02,0.950278
1590,3.21E-02,0.9503703
1591,3.21E-02,0.9503853
1592,3.22E-02,0.9503249
1593,3.24E-02,0.9501933
1594,3.26E-02,0.9499982
1595,3.28E-02,0.9497497
1596,3.31E-02,0.9494603
1597,3.34E-02,0.9491438
1598,3.38E-02,0.948815
1599,3.41E-02,0.9484893
1600,3.44E-02,0.9481812
1601,3.47E-02,0.9479061
1602,3.50E-02,0.9476705
1603,3.52E-02,0.9474839
1604,3.53E-02,0.9473538
1605,3.54E-02,0.9472852
1606,0.0353712,0.9472808
1607,3.53E-02,0.9473401
1608,3.52E-02,0.9474605
1609,3.50E-02,0.9476367
1610,3.48E-02,0.947861
1611,3.45E-02,0.948124
1612,3.42E-02,0.9484141
1613,3.39E-02,0.9487195
1614,0.0336007,0.9490272
1615,0.0332999,0.9493239
1616,0.033023,0.9495973
1617,3.28E-02,0.9498359
1618,3.26E-02,0.9500299
1619,3.24E-02,0.9501706
1620,3.24E-02,0.9502527
1621,3.23E-02,0.9502727
1622,3.24E-02,0.95023
1623,0.0324968,0.9501266
1624,0.0326606,0.9499672
1625,0.032874,0.9497586
1626,3.31E-02,0.9495101
1627,3.34E-02,0.9492327
1628,3.37E-02,0.9489383
1629,3.40E-02,0.9486394
1630,3.43E-02,0.9483493
1631,3.46E-02,0.9480804
1632,3.48E-02,0.9478441
1633,3.50E-02,0.9476507
1634,3.51E-02,0.9475083
1635,3.52E-02,0.9474232
1636,3.53E-02,0.9473987
1637,0.0352076,0.9474357
1638,3.51E-02,0.9475327
1639,3.49E-02,0.9476849
1640,0.0347288,0.9478858
1641,3.45E-02,0.9481263
1642,3.42E-02,0.9483958
1643,3.39E-02,0.9486821
1644,0.0335918,0.9489725
1645,3.33E-02,0.949254
1646,3.30E-02,0.9495138
1647,3.28E-02,0.9497405
1648,3.26E-02,0.9499238
1649,0.0324505,0.9500556
1650,3.24E-02,0.9501301
1651,3.23E-02,0.9501443
1652,3.24E-02,0.9500976
1653,3.25E-02,0.9499928
1654,3.26E-02,0.9498349
1655,3.28E-02,0.9496319
1656,0.0330678,0.9493935
1657,3.33E-02,0.9491311
1658,3.36E-02,0.9488572
1659,3.39E-02,0.948585
1660,3.41E-02,0.9483271
1661,3.43E-02,0.9480955
1662,3.45E-02,0.947907
1663,3.46E-02,0.9477637
1664,3.47E-02,0.9476718
1665,3.47E-02,0.9476346
1666,0.0347068,0.9476528
1667,3.46E-02,0.9477237
1668,3.45E-02,0.9478426
1669,3.43E-02,0.9480014
1670,3.41E-02,0.94819
1671,0.0338493,0.9483968
1672,3.36E-02,0.9486092
1673,0.0333798,0.948814
1674,3.32E-02,0.9489987
1675,3.30E-02,0.9491515
1676,3.29E-02,0.9492624
1677,3.28E-02,0.9493243
1678,3.27E-02,0.9493325
1679,3.28E-02,0.9492857
1680,3.28E-02,0.949186
1681,3.30E-02,0.9490387
1682,3.31E-02,0.9488462
1683,3.33E-02,0.9486253
1684,3.35E-02,0.9483888
1685,3.37E-02,0.9481513
1686,3.39E-02,0.9479274
1687,3.41E-02,0.9477311
1688,3.42E-02,0.9475751
1689,3.43E-02,0.9474692
1690,3.43E-02,0.9474204
1691,3.42E-02,0.9474313
1692,3.41E-02,0.9475006
1693,3.40E-02,0.9476222
1694,3.37E-02,0.9477858
1695,3.35E-02,0.9479771
1696,0.0332469,0.9481788
1697,3.30E-02,0.9483712
1698,3.28E-02,0.9485341
1699,3.26E-02,0.9486476
1700,3.25E-02,0.9486942
1701,3.25E-02,0.9486595
1702,3.25E-02,0.9485351
1703,3.27E-02,0.9483179
1704,0.0329408,0.9480126
1705,0.0332633,0.9476305
1706,3.36E-02,0.9471905
1707,3.41E-02,0.9467171
1708,3.45E-02,0.9462399
1709,0.0348449,0.9457912
1710,3.52E-02,0.9454044
1711,3.54E-02,0.9451085
1712,3.55E-02,0.9449279
1713,3.54E-02,0.9448789
1714,3.52E-02,0.9449672
1715,3.49E-02,0.9451854
1716,3.44E-02,0.9455128
1717,3.39E-02,0.9459144
1718,3.33E-02,0.9463421
1719,3.28E-02,0.9467379
1720,3.24E-02,0.9470374
1721,3.21E-02,0.9471751
1722,3.20E-02,0.9470918
1723,3.22E-02,0.9467407
1724,3.27E-02,0.9460959
1725,0.0334965,0.9451577
1726,3.45E-02,0.9439576
1727,3.58E-02,0.9425602
1728,3.71E-02,0.9410617
1729,3.84E-02,0.9395837
1730,3.96E-02,0.9382635
1731,0.0403719,0.9372408
1732,4.07E-02,0.9366391
1733,4.05E-02,0.9365479
1734,0.0397533,0.937
1735,3.84E-02,0.9379534
1736,3.67E-02,0.9392759
1737,3.48E-02,0.9407395
1738,3.30E-02,0.9420286
1739,3.17E-02,0.942771
1740,3.13E-02,0.9425925
1741,3.22E-02,0.9412002
1742,3.43E-02,0.938482
1743,3.76E-02,0.934608
1744,4.15E-02,0.9300983
1745,4.51E-02,0.925825
1746,4.71E-02,0.9228951
1747,4.65E-02,0.9223446
1748,4.27E-02,0.9245006
1749,3.73E-02,0.9277668
1750,3.56E-02,0.9265539
1751,5.00E-02,0.9087924
1752,9.98E-02,0.8560983
1753,0.2018823,0.7527965
1754,0.3529411,0.6034001
1755,0.5220824,0.4386531
1756,0.6718898,0.2945536
1757,0.7835722,0.1884299
1758,0.8585213,0.1181629
1759,0.9063325,7.40E-02
1760,0.9363775,4.69E-02
1761,0.9553596,3.01E-02
1762,0.9675471,1.96E-02
1763,0.9755419,0.0130179
1764,0.9809146,8.77E-03
1765,0.9846175,5.99E-03
1766,0.9872364,4.15E-03
1767,0.9891368,2.91E-03
1768,0.9905513,2.07E-03
1769,0.9916304,1.48E-03
1770,0.9924734,1.07E-03
1771,0.9931468,7.85E-04
1772,0.9936961,5.79E-04
1773,0.9941528,4.30E-04
1774,0.9945388,3.22E-04
1775,0.9948705,2.43E-04
1776,0.9951591,1.85E-04
1777,0.9954135,1.41E-04
1778,0.9956397,1.09E-04
1779,0.9958429,8.39E-05
1780,0.9960268,6.52E-05
1781,0.9961942,5.10E-05
1782,0.9963477,4.00E-05
1783,0.996489,3.16E-05
1784,0.9966197,2.50E-05
1785,0.9967411,1.99E-05
1786,0.9968542,1.59E-05
1787,0.9969599,1.28E-05
1788,0.9970589,1.03E-05
1789,0.997152,8.32E-06
1790,0.9972395,6.75E-06
1791,0.9973221,5.49E-06
1792,0.9974002,4.49E-06
1793,0.997474,3.68E-06
1794,0.997544,3.02E-06
1795,0.9976104,2.49E-06
1796,0.9976736,2.06E-06
1797,0.9977337,1.71E-06
1798,0.9977909,1.42E-06
1799,0.9978456,1.18E-06
1800,0.9978977,9.88E-07
1801,0.9979477,8.27E-07
1802,0.9979955,6.94E-07
1803,0.9980413,5.84E-07
1804,0.9980851,4.92E-07
1805,0.9981272,4.16E-07
1806,0.9981675,3.52E-07
1807,0.9982062,2.99E-07
1808,0.9982433,2.54E-07
1809,0.998279,2.17E-07
1810,0.9983134,1.85E-07
1811,0.9983464,1.58E-07
1812,0.9983784,1.36E-07
1813,0.998409,1.17E-07
1814,0.9984386,1.00E-07
1815,0.998467,8.66E-08
1816,0.9984946,7.48E-08
1817,0.9985211,6.47E-08
1818,0.9985468,5.61E-08
1819,0.9985715,4.87E-08
1820,0.9985955,4.24E-08
1821,0.9986187,3.69E-08
1822,0.9986411,3.22E-08
1823,0.9986628,2.81E-08
1824,0.9986838,2.46E-08
1825,0.9987042,2.16E-08
1826,0.998724,1.89E-08
1827,0.998743,1.66E-08
1828,0.9987616,1.46E-08
1829,0.9987795,1.29E-08
1830,0.9987969,1.14E-08
1831,0.9988139,1.01E-08
1832,0.9988303,8.91E-09
1833,0.9988463,7.89E-09
1834,0.9988617,7.00E-09
1835,0.9988769,6.22E-09
1836,0.9988915,5.53E-09
1837,0.9989058,4.93E-09
1838,0.9989197,4.39E-09
1839,0.998933,3.92E-09
1840,0.9989461,3.51E-09
1841,0.9989589,3.14E-09
1842,0.9989714,2.81E-09
1843,0.9989834,2.52E-09
1844,0.9989953,2.26E-09
1845,0.9990067,2.03E-09
1846,0.999018,1.83E-09
1847,0.9990289,1.65E-09
1848,0.9990394,1.49E-09
1849,0.9990498,1.34E-09
1850,0.9990599,1.21E-09
1851,0.9990698,1.10E-09
1852,0.9990794,9.93E-10
1853,0.9990888,8.99E-10
1854,0.9990979,8.16E-10
1855,0.9991069,7.41E-10
1856,0.9991156,6.73E-10
1857,0.9991242,6.13E-10
1858,0.9991325,5.58E-10
1859,0.9991406,5.08E-10
1860,0.9991486,4.64E-10
1861,0.9991564,4.23E-10
1862,0.9991639,3.87E-10
1863,0.9991714,3.54E-10
1864,0.9991786,3.24E-10
1865,0.9991857,2.97E-10
1866,0.9991926,2.72E-10
1867,0.9991994,2.50E-10
1868,0.9992061,2.30E-10
1869,0.9992126,2.11E-10
1870,0.9992189,1.94E-10
1871,0.9992251,1.79E-10
1872,0.9992312,1.65E-10
1873,0.9992372,1.52E-10
1874,0.999243,1.40E-10
1875,0.9992487,1.30E-10
1876,0.9992543,1.20E-10
1877,0.9992598,1.11E-10
1878,0.9992651,1.03E-10
1879,0.9992704,9.50E-11
1880,0.9992756,8.81E-11
1881,0.9992806,8.17E-11
1882,0.9992855,7.59E-11
1883,0.9992905,7.05E-11
1884,0.9992951,6.56E-11
1885,0.9992998,6.10E-11
1886,0.9993044,5.68E-11
1887,0.9993088,5.29E-11
1888,0.9993132,4.94E-11
1889,0.9993176,4.61E-11
1890,0.9993218,4.30E-11
1891,0.9993259,4.02E-11
1892,0.99933,3.76E-11
1893,0.9993339,3.51E-11
1894,0.9993378,3.29E-11
1895,0.9993417,3.08E-11
1896,0.9993455,2.89E-11
1897,0.9993491,2.71E-11
1898,0.9993528,2.54E-11
1899,0.9993563,2.39E-11
1900,0.9993598,2.24E-11
1901,0.9993633,2.11E-11
1902,0.9993666,1.99E-11
1903,0.99937,1.87E-11
1904,0.9993732,1.76E-11
1905,0.9993764,1.66E-11
1906,0.9993795,1.56E-11
1907,0.9993826,1.48E-11
1908,0.9993857,1.39E-11
1909,0.9993886,1.32E-11
1910,0.9993915,1.25E-11
1911,0.9993943,1.18E-11
1912,0.9993972,1.11E-11
1913,0.9993999,1.06E-11
1914,0.9994026,1.00E-11
1915,0.9994053,9.48E-12
1916,0.999408,8.99E-12
1917,0.9994105,8.53E-12
1918,0.9994131,8.10E-12
1919,0.9994155,7.70E-12
1920,0.999418,7.32E-12
1921,0.9994203,6.96E-12
1922,0.9994228,6.62E-12
1923,0.9994251,6.30E-12
1924,0.9994274,6.00E-12
1925,0.9994297,5.72E-12
1926,0.9994318,5.46E-12
1927,0.9994339,5.21E-12
1928,0.9994361,4.97E-12
1929,0.9994382,4.74E-12
1930,0.9994403,4.53E-12
1931,0.9994423,4.33E-12
1932,0.9994444,4.15E-12
1933,0.9994463,3.97E-12
1934,0.9994482,3.80E-12
1935,0.9994501,3.64E-12
1936,0.999452,3.49E-12
1937,0.9994538,3.34E-12
1938,0.9994556,3.21E-12
1939,0.9994574,3.08E-12
1940,0.9994591,2.95E-12
1941,0.9994609,2.84E-12
1942,0.9994625,2.73E-12
1943,0.9994643,2.62E-12
1944,0.9994658,2.52E-12
1945,0.9994676,2.43E-12
1946,0.9994691,2.34E-12
1947,0.9994706,2.25E-12
1948,0.9994722,2.17E-12
1949,0.9994737,2.09E-12
1950,0.9994752,2.02E-12
1951,0.9994766,1.95E-12
1952,0.999478,1.88E-12
1953,0.9994795,1.82E-12
1954,0.9994808,1.76E-12
1955,0.9994822,1.70E-12
1956,0.9994836,1.64E-12
1957,0.9994849,1.59E-12
1958,0.9994862,1.54E-12
1959,0.9994875,1.49E-12
1960,0.9994888,1.44E-12
1961,0.99949,1.40E-12
1962,0.9994913,1.36E-12
1963,0.9994924,1.32E-12
1964,0.9994937,1.28E-12
1965,0.9994949,1.24E-12
1966,0.999496,1.20E-12
1967,0.9994971,1.17E-12
1968,0.9994982,1.14E-12
1969,0.9994994,1.11E-12
1970,0.9995004,1.08E-12
1971,0.9995015,1.05E-12
1972,0.9995025,1.02E-12
1973,0.9995035,9.95E-13
1974,0.9995045,9.69E-13
1975,0.9995055,9.45E-13
1976,0.9995065,9.22E-13
1977,0.9995075,8.99E-13
1978,0.9995084,8.78E-13
1979,0.9995093,8.57E-13
1980,0.9995103,8.37E-13
1981,0.9995112,8.18E-13
1982,0.9995121,8.00E-13
1983,0.9995129,7.83E-13
1984,0.9995139,7.66E-13
1985,0.9995146,7.49E-13
1986,0.9995155,7.34E-13
1987,0.9995164,7.19E-13
1988,0.9995171,7.05E-13
1989,0.9995179,6.91E-13
1990,0.9995186,6.77E-13
1991,0.9995195,6.65E-13
1992,0.9995202,6.52E-13
1993,0.999521,6.40E-13
1994,0.9995217,6.29E-13
1995,0.9995223,6.18E-13
1996,0.9995231,6.07E-13
1997,0.9995238,5.97E-13
1998,0.9995245,5.88E-13
1999,0.9995251,5.78E-13
2000,0.9995259,5.69E-13
2001,0.9995269,5.60E-13
2002,0.9995277,5.52E-13
2003,0.9995286,5.44E-13
2004,0.9995295,5.36E-13
2005,0.9995305,5.28E-13
2006,0.9995314,5.21E-13
2007,0.9995323,5.14E-13
2008,0.9995333,5.08E-13
2009,0.9995341,5.01E-13
2010,0.9995349,4.95E-13
2011,0.9995358,4.89E-13
2012,0.9995366,4.83E-13
2013,0.9995375,4.78E-13
2014,0.9995383,4.73E-13
2015,0.999539,4.68E-13
2016,0.9995399,4.63E-13
2017,0.9995406,4.59E-13
2018,0.9995415,4.54E-13
2019,0.9995422,4.50E-13
2020,0.999543,4.46E-13
2021,0.9995437,4.42E-13
2022,0.9995446,4.39E-13
2023,0.9995452,4.35E-13
2024,0.999546,4.32E-13
2025,0.9995466,4.29E-13
2026,0.9995474,4.26E-13
2027,0.9995481,4.23E-13
2028,0.9995489,4.21E-13
2029,0.9995494,4.18E-13
2030,0.9995502,4.16E-13
2031,0.9995508,4.14E-13
2032,0.9995515,4.12E-13
2033,0.9995521,4.10E-13
2034,0.9995528,4.08E-13
2035,0.9995535,4.07E-13
2036,0.9995542,4.05E-13
2037,0.9995548,4.04E-13
2038,0.9995553,4.03E-13
2039,0.9995559,4.02E-13
2040,0.9995567,4.01E-13
2041,0.9995571,4.01E-13
2042,0.9995577,4.00E-13
2043,0.9995584,4.00E-13
2044,0.9995589,3.99E-13
2045,0.9995595,3.99E-13
2046,0.9995601,3.99E-13
2047,0.9995606,3.99E-13
2048,0.9995612,3.99E-13
2049,0.9995617,4.00E-13
2050,0.9995623,4.00E-13
2051,0.9995629,4.01E-13
2052,0.9995633,4.02E-13
2053,0.9995638,4.03E-13
2054,0.9995644,4.04E-13
2055,0.9995649,4.05E-13
2056,0.9995654,4.06E-13
2057,0.9995659,4.07E-13
2058,0.9995665,4.09E-13
2059,0.9995669,4.11E-13
2060,0.9995674,4.13E-13
2061,0.9995679,4.15E-13
2062,0.9995683,4.17E-13
2063,0.9995688,4.19E-13
2064,0.9995693,4.22E-13
2065,0.9995697,4.24E-13
2066,0.9995701,4.27E-13
2067,0.9995706,4.30E-13
2068,0.999571,4.33E-13
2069,0.9995715,4.36E-13
2070,0.9995719,4.40E-13
2071,0.9995724,4.43E-13
2072,0.9995728,4.47E-13
2073,0.9995732,4.51E-13
2074,0.9995736,4.55E-13
2075,0.999574,4.59E-13
2076,0.9995744,4.64E-13
2077,0.9995748,4.68E-13
2078,0.9995753,4.73E-13
2079,0.9995756,4.78E-13
2080,0.999576,4.84E-13
2081,0.9995763,4.89E-13
2082,0.9995767,4.95E-13
2083,0.999577,5.01E-13
2084,0.9995775,5.07E-13
2085,0.9995779,5.14E-13
2086,0.9995782,5.21E-13
2087,0.9995785,5.28E-13
2088,0.9995789,5.35E-13
2089,0.9995793,5.42E-13
2090,0.9995795,5.50E-13
2091,0.9995799,5.58E-13
2092,0.9995803,5.67E-13
2093,0.9995806,5.76E-13
2094,0.999581,5.85E-13
2095,0.9995812,5.94E-13
2096,0.9995816,6.04E-13
2097,0.9995819,6.14E-13
2098,0.9995822,6.24E-13
2099,0.9995825,6.35E-13
2100,0.9995828,6.47E-13
2101,0.9995831,6.58E-13
2102,0.9995834,6.70E-13
2103,0.9995835,6.83E-13
2104,0.9995838,6.96E-13
2105,0.9995841,7.09E-13
2106,0.9995844,7.23E-13
2107,0.9995846,7.38E-13
2108,0.9995849,7.53E-13
2109,0.999585,7.69E-13
2110,0.9995853,7.85E-13
2111,0.9995855,8.02E-13
2112,0.9995858,8.19E-13
2113,0.9995859,8.37E-13
2114,0.9995862,8.56E-13
2115,0.9995865,8.76E-13
2116,0.9995866,8.96E-13
2117,0.9995868,9.17E-13
2118,0.9995871,9.39E-13
2119,0.9995872,9.61E-13
2120,0.9995874,9.85E-13
2121,0.9995877,1.01E-12
2122,0.9995878,1.04E-12
2123,0.999588,1.06E-12
2124,0.9995883,1.09E-12
2125,0.9995884,1.12E-12
2126,0.9995886,1.15E-12
2127,0.9995887,1.18E-12
2128,0.999589,1.21E-12
2129,0.9995891,1.24E-12
2130,0.9995893,1.28E-12
2131,0.9995894,1.32E-12
2132,0.9995896,1.35E-12
2133,0.9995898,1.39E-12
2134,0.99959,1.43E-12
2135,0.99959,1.48E-12
2136,0.9995903,1.52E-12
2137,0.9995904,1.57E-12
2138,0.9995906,1.62E-12
2139,0.9995907,1.67E-12
2140,0.9995908,1.72E-12
2141,0.999591,1.77E-12
2142,0.9995911,1.83E-12
2143,0.9995913,1.89E-12
2144,0.9995915,1.96E-12
2145,0.9995915,2.02E-12
2146,0.9995917,2.09E-12
2147,0.9995919,2.16E-12
2148,0.9995919,2.24E-12
2149,0.9995921,2.31E-12
2150,0.9995922,2.40E-12
2151,0.9995922,2.48E-12
2152,0.9995924,2.57E-12
2153,0.9995925,2.66E-12
2154,0.9995926,2.76E-12
2155,0.9995928,2.86E-12
2156,0.9995928,2.97E-12
2157,0.999593,3.09E-12
2158,0.9995931,3.20E-12
2159,0.9995932,3.33E-12
2160,0.9995933,3.46E-12
2161,0.9995934,3.59E-12
2162,0.9995935,3.74E-12
2163,0.9995936,3.89E-12
2164,0.9995937,4.05E-12
2165,0.9995938,4.21E-12
2166,0.9995938,4.39E-12
2167,0.9995939,4.57E-12
2168,0.9995941,4.76E-12
2169,0.9995941,4.97E-12
2170,0.9995942,5.18E-12
2171,0.9995943,5.41E-12
2172,0.9995943,5.64E-12
2173,0.9995944,5.89E-12
2174,0.9995945,6.16E-12
2175,0.9995946,6.43E-12
2176,0.9995947,6.73E-12
2177,0.9995947,7.04E-12
2178,0.9995947,7.36E-12
2179,0.9995948,7.71E-12
2180,0.9995948,8.07E-12
2181,0.9995949,8.46E-12
2182,0.999595,8.86E-12
2183,0.999595,9.29E-12
2184,0.9995951,9.75E-12
2185,0.9995951,1.02E-11
2186,0.9995952,1.07E-11
2187,0.9995952,1.13E-11
2188,0.9995953,1.19E-11
2189,0.9995953,1.25E-11
2190,0.9995954,1.31E-11
2191,0.9995954,1.38E-11
2192,0.9995955,1.45E-11
2193,0.9995955,1.53E-11
2194,0.9995955,1.61E-11
2195,0.9995955,1.70E-11
2196,0.9995955,1.79E-11
2197,0.9995955,1.89E-11
2198,0.9995956,2.00E-11
2199,0.9995956,2.11E-11
2200,0.9995958,2.23E-11
2201,0.9995958,2.36E-11
2202,0.9995958,2.50E-11
2203,0.9995958,2.65E-11
2204,0.9995958,2.81E-11
2205,0.9995958,2.97E-11
2206,0.9995958,3.16E-11
2207,0.9995958,3.35E-11
2208,0.9995958,3.56E-11
2209,0.9995958,3.78E-11
2210,0.9995958,4.03E-11
2211,0.9995958,4.29E-11
2212,0.9995958,4.57E-11
2213,0.9995958,4.87E-11
2214,0.9995958,5.20E-11
2215,0.9995958,5.55E-11
2216,0.9995958,5.93E-11
2217,0.9995958,6.35E-11
2218,0.9995958,6.80E-11
2219,0.9995956,7.29E-11
2220,0.9995956,7.82E-11
2221,0.9995955,8.40E-11
2222,0.9995955,9.04E-11
2223,0.9995955,9.73E-11
2224,0.9995955,1.05E-10
2225,0.9995955,1.13E-10
2226,0.9995955,1.22E-10
2227,0.9995955,1.32E-10
2228,0.9995955,1.44E-10
2229,0.9995955,1.56E-10
2230,0.9995954,1.69E-10
2231,0.9995954,1.85E-10
2232,0.9995953,2.01E-10
2233,0.9995952,2.20E-10
2234,0.9995952,2.41E-10
2235,0.9995952,2.65E-10
2236,0.9995951,2.92E-10
2237,0.999595,3.22E-10
2238,0.999595,3.56E-10
2239,0.999595,3.95E-10
2240,0.9995949,4.40E-10
2241,0.9995949,4.91E-10
2242,0.9995949,5.50E-10
2243,0.9995948,6.19E-10
2244,0.9995948,6.99E-10
2245,0.9995947,7.94E-10
2246,0.9995947,9.05E-10
2247,0.9995946,1.04E-09
2248,0.9995945,1.20E-09
2249,0.9995944,1.39E-09
2250,0.9995944,1.63E-09
2251,0.9995944,1.92E-09
2252,0.9995943,2.29E-09
2253,0.9995942,2.77E-09
2254,0.9995941,3.37E-09
2255,0.999594,4.18E-09
2256,0.999594,5.25E-09
2257,0.9995939,6.73E-09
2258,0.9995939,8.82E-09
2259,0.9995937,1.18E-08
2260,0.9995937,1.62E-08
2261,0.9995937,2.28E-08
2262,0.9995936,3.21E-08
2263,0.9995934,4.37E-08
2264,0.9995934,5.38E-08
2265,0.9995933,5.66E-08
2266,0.9995931,5.04E-08
2267,0.9995931,4.02E-08
2268,0.9995931,3.07E-08
2269,0.999593,2.34E-08
2270,0.9995928,1.82E-08
2271,0.9995928,1.45E-08
2272,0.9995927,1.18E-08
2273,0.9995927,9.89E-09
2274,0.9995925,8.42E-09
2275,0.9995924,7.29E-09
2276,0.9995924,6.40E-09
2277,0.9995922,5.70E-09
2278,0.9995922,5.14E-09
2279,0.9995921,4.67E-09
2280,0.9995919,4.29E-09
2281,0.9995918,3.97E-09
2282,0.9995918,3.70E-09
2283,0.9995916,3.48E-09
2284,0.9995915,3.29E-09
2285,0.9995914,3.13E-09
2286,0.9995914,2.99E-09
2287,0.9995912,2.87E-09
2288,0.9995911,2.77E-09
2289,0.9995909,2.69E-09
2290,0.9995909,2.61E-09
2291,0.9995908,2.56E-09
2292,0.9995906,2.51E-09
2293,0.9995905,2.47E-09
2294,0.9995903,2.45E-09
2295,0.9995903,2.43E-09
2296,0.9995902,2.42E-09
2297,0.99959,2.42E-09
2298,0.9995899,2.42E-09
2299,0.9995897,2.44E-09
2300,0.9995896,2.46E-09
2301,0.9995896,2.50E-09
2302,0.9995895,2.54E-09
2303,0.9995893,2.59E-09
2304,0.9995893,2.65E-09
2305,0.9995891,2.73E-09
2306,0.999589,2.81E-09
2307,0.999589,2.91E-09
2308,0.9995888,3.03E-09
2309,0.9995888,3.16E-09
2310,0.9995887,3.32E-09
2311,0.9995885,3.49E-09
2312,0.9995884,3.70E-09
2313,0.9995883,3.94E-09
2314,0.9995883,4.21E-09
2315,0.9995881,4.54E-09
2316,0.999588,4.91E-09
2317,0.9995879,5.36E-09
2318,0.9995878,5.89E-09
2319,0.9995877,6.54E-09
2320,0.9995875,7.32E-09
2321,0.9995875,8.28E-09
2322,0.9995872,9.47E-09
2323,0.9995872,1.10E-08
2324,0.9995871,1.30E-08
2325,0.9995869,1.56E-08
2326,0.9995868,1.91E-08
2327,0.9995867,2.39E-08
2328,0.9995865,3.09E-08
2329,0.9995865,4.11E-08
2330,0.9995863,5.62E-08
2331,0.9995861,7.75E-08
2332,0.999586,1.03E-07
2333,0.9995857,1.21E-07
2334,0.9995857,1.19E-07
2335,0.9995856,9.62E-08
2336,0.9995854,6.98E-08
2337,0.9995854,4.90E-08
2338,0.9995852,3.49E-08
2339,0.9995851,2.55E-08
2340,0.999585,1.92E-08
2341,0.9995848,1.48E-08
2342,0.9995847,1.18E-08
2343,0.9995846,9.50E-09
2344,0.9995844,7.82E-09
2345,0.9995843,6.53E-09
2346,0.9995841,5.53E-09
2347,0.999584,4.74E-09
2348,0.9995838,4.10E-09
2349,0.9995836,3.58E-09
2350,0.9995835,3.15E-09
2351,0.9995833,2.79E-09
2352,0.9995832,2.49E-09
2353,0.999583,2.24E-09
2354,0.9995829,2.02E-09
2355,0.9995828,1.83E-09
2356,0.9995826,1.67E-09
2357,0.9995824,1.52E-09
2358,0.9995822,1.40E-09
2359,0.9995821,1.29E-09
2360,0.9995819,1.19E-09
2361,0.9995818,1.11E-09
2362,0.9995816,1.03E-09
2363,0.9995815,9.63E-10
2364,0.9995812,9.02E-10
2365,0.999581,8.46E-10
2366,0.9995809,7.96E-10
2367,0.9995807,7.50E-10
2368,0.9995805,7.09E-10
2369,0.9995803,6.71E-10
2370,0.9995801,6.37E-10
2371,0.99958,6.05E-10
2372,0.9995798,5.76E-10
2373,0.9995797,5.50E-10
2374,0.9995794,5.26E-10
2375,0.9995793,5.03E-10
2376,0.9995791,4.82E-10
2377,0.9995788,4.63E-10
2378,0.9995787,4.45E-10
2379,0.9995785,4.29E-10
2380,0.9995784,4.13E-10
2381,0.9995781,3.99E-10
2382,0.9995779,3.86E-10
2383,0.9995778,3.73E-10
2384,0.9995775,3.62E-10
2385,0.9995773,3.51E-10
2386,0.9995772,3.41E-10
2387,0.999577,3.32E-10
2388,0.9995767,3.23E-10
2389,0.9995766,3.15E-10
2390,0.9995764,3.07E-10
2391,0.9995762,3.00E-10
2392,0.999576,2.93E-10
2393,0.9995757,2.87E-10
2394,0.9995756,2.81E-10
2395,0.9995753,2.76E-10
2396,0.9995751,2.71E-10
2397,0.9995749,2.66E-10
2398,0.9995747,2.62E-10
2399,0.9995745,2.58E-10
2400,0.9995743,2.54E-10
2401,0.9995741,2.51E-10
2402,0.9995739,2.47E-10
2403,0.9995736,2.44E-10
2404,0.9995733,2.42E-10
2405,0.9995732,2.39E-10
2406,0.9995729,2.37E-10
2407,0.9995728,2.35E-10
2408,0.9995725,2.33E-10
2409,0.9995723,2.31E-10
2410,0.9995721,2.30E-10
2411,0.9995719,2.29E-10
2412,0.9995716,2.28E-10
2413,0.9995714,2.27E-10
2414,0.9995711,2.26E-10
2415,0.999571,2.26E-10
2416,0.9995708,2.26E-10
2417,0.9995705,2.26E-10
2418,0.9995703,2.26E-10
2419,0.99957,2.26E-10
2420,0.9995698,2.27E-10
2421,0.9995695,2.27E-10
2422,0.9995693,2.28E-10
2423,0.9995691,2.29E-10
2424,0.9995688,2.30E-10
2425,0.9995686,2.32E-10
2426,0.9995683,2.33E-10
2427,0.9995682,2.35E-10
2428,0.999568,2.37E-10
2429,0.9995677,2.40E-10
2430,0.9995673,2.42E-10
2431,0.9995672,2.45E-10
2432,0.9995669,2.48E-10
2433,0.9995666,2.51E-10
2434,0.9995664,2.55E-10
2435,0.9995661,2.59E-10
2436,0.9995658,2.63E-10
2437,0.9995656,2.67E-10
2438,0.9995654,2.72E-10
2439,0.9995652,2.77E-10
2440,0.9995649,2.82E-10
2441,0.9995646,2.88E-10
2442,0.9995642,2.95E-10
2443,0.9995641,3.01E-10
2444,0.9995637,3.09E-10
2445,0.9995635,3.16E-10
2446,0.9995633,3.25E-10
2447,0.999563,3.33E-10
2448,0.9995627,3.43E-10
2449,0.9995624,3.53E-10
2450,0.9995621,3.64E-10
2451,0.9995618,3.76E-10
2452,0.9995615,3.88E-10
2453,0.9995613,4.02E-10
2454,0.999561,4.17E-10
2455,0.9995607,4.32E-10
2456,0.9995605,4.49E-10
2457,0.9995602,4.67E-10
2458,0.9995599,4.87E-10
2459,0.9995596,5.09E-10
2460,0.9995593,5.32E-10
2461,0.999559,5.57E-10
2462,0.9995587,5.85E-10
2463,0.9995584,6.15E-10
2464,0.9995582,6.48E-10
2465,0.9995579,6.84E-10
2466,0.9995575,7.23E-10
2467,0.9995573,7.66E-10
2468,0.9995569,8.14E-10
2469,0.9995565,8.67E-10
2470,0.9995563,9.26E-10
2471,0.9995561,9.92E-10
2472,0.9995557,1.06E-09
2473,0.9995555,1.15E-09
2474,0.9995551,1.24E-09
2475,0.9995548,1.34E-09
2476,0.9995545,1.46E-09
2477,0.9995542,1.59E-09
2478,0.9995539,1.74E-09
2479,0.9995536,1.92E-09
2480,0.9995532,2.11E-09
2481,0.999553,2.34E-09
2482,0.9995526,2.60E-09
2483,0.9995522,2.90E-09
2484,0.9995519,3.25E-09
2485,0.9995516,3.65E-09
2486,0.9995513,4.11E-09
2487,0.9995509,4.62E-09
2488,0.9995506,5.19E-09
2489,0.9995503,5.81E-09
2490,0.9995499,6.45E-09
2491,0.9995496,7.07E-09
2492,0.9995493,7.62E-09
2493,0.999549,8.03E-09
2494,0.9995486,8.25E-09
2495,0.9995483,8.25E-09
2496,0.999548,8.02E-09
2497,0.9995476,7.59E-09
2498,0.9995472,7.04E-09
2499,0.9995469,6.42E-09
2500,0.9995465,5.78E-09
2501,0.9995461,5.16E-09
2502,0.9995456,4.58E-09
2503,0.999545,4.06E-09
2504,0.9995445,3.61E-09
2505,0.999544,3.21E-09
2506,0.9995435,2.86E-09
2507,0.999543,2.56E-09
2508,0.9995425,2.30E-09
2509,0.9995419,2.07E-09
2510,0.9995414,1.88E-09
2511,0.9995409,1.71E-09
2512,0.9995403,1.56E-09
2513,0.9995398,1.42E-09
2514,0.9995393,1.31E-09
2515,0.9995387,1.21E-09
2516,0.9995382,1.12E-09
2517,0.9995376,1.03E-09
2518,0.9995371,9.62E-10
2519,0.9995366,8.97E-10
2520,0.999536,8.39E-10
2521,0.9995354,7.87E-10
2522,0.9995348,7.39E-10
2523,0.9995342,6.96E-10
2524,0.9995338,6.57E-10
2525,0.9995332,6.22E-10
2526,0.9995326,5.89E-10
2527,0.9995321,5.59E-10
2528,0.9995315,5.32E-10
2529,0.999531,5.07E-10
2530,0.9995304,4.84E-10
2531,0.9995298,4.62E-10
2532,0.9995292,4.42E-10
2533,0.9995285,4.24E-10
2534,0.9995279,4.07E-10
2535,0.9995275,3.91E-10
2536,0.9995269,3.76E-10
2537,0.9995263,3.63E-10
2538,0.9995257,3.50E-10
2539,0.999525,3.38E-10
2540,0.9995244,3.27E-10
2541,0.9995239,3.16E-10
2542,0.9995233,3.07E-10
2543,0.9995227,2.97E-10
2544,0.999522,2.89E-10
2545,0.9995215,2.81E-10
2546,0.9995208,2.73E-10
2547,0.9995202,2.66E-10
2548,0.9995196,2.59E-10
2549,0.9995189,2.52E-10
2550,0.9995183,2.46E-10
2551,0.9995177,2.41E-10
2552,0.9995171,2.35E-10
2553,0.9995164,2.30E-10
2554,0.9995159,2.25E-10
2555,0.9995152,2.21E-10
2556,0.9995145,2.16E-10
2557,0.9995139,2.12E-10
2558,0.9995132,2.08E-10
2559,0.9995126,2.05E-10
2560,0.9995119,2.01E-10
2561,0.9995113,1.98E-10
2562,0.9995105,1.95E-10
2563,0.99951,1.92E-10
2564,0.9995093,1.89E-10
2565,0.9995086,1.87E-10
2566,0.999508,1.84E-10
2567,0.9995072,1.82E-10
2568,0.9995067,1.79E-10
2569,0.9995059,1.77E-10
2570,0.9995052,1.75E-10
2571,0.9995045,1.74E-10
2572,0.9995039,1.72E-10
2573,0.9995031,1.70E-10
2574,0.9995024,1.69E-10
2575,0.9995018,1.67E-10
2576,0.999501,1.66E-10
2577,0.9995003,1.64E-10
2578,0.9994996,1.63E-10
2579,0.9994989,1.62E-10
2580,0.9994982,1.61E-10
2581,0.9994975,1.60E-10
2582,0.9994968,1.59E-10
2583,0.999496,1.58E-10
2584,0.9994953,1.58E-10
2585,0.9994946,1.57E-10
2586,0.9994938,1.56E-10
2587,0.9994931,1.56E-10
2588,0.9994924,1.55E-10
2589,0.9994916,1.55E-10
2590,0.9994909,1.55E-10
2591,0.9994901,1.54E-10
2592,0.9994894,1.54E-10
2593,0.9994887,1.54E-10
2594,0.9994879,1.54E-10
2595,0.9994871,1.54E-10
2596,0.9994863,1.54E-10
2597,0.9994856,1.54E-10
2598,0.9994848,1.54E-10
2599,0.999484,1.54E-10
2600,0.9994832,1.54E-10
2601,0.9994825,1.54E-10
2602,0.9994817,1.55E-10
2603,0.9994808,1.55E-10
2604,0.99948,1.56E-10
2605,0.9994792,1.56E-10
2606,0.9994784,1.57E-10
2607,0.9994776,1.57E-10
2608,0.9994768,1.58E-10
2609,0.999476,1.58E-10
2610,0.9994751,1.59E-10
2611,0.9994743,1.60E-10
2612,0.9994735,1.61E-10
2613,0.9994727,1.62E-10
2614,0.9994718,1.63E-10
2615,0.9994709,1.64E-10
2616,0.9994702,1.65E-10
2617,0.9994693,1.66E-10
2618,0.9994684,1.67E-10
2619,0.9994676,1.68E-10
2620,0.9994667,1.70E-10
2621,0.9994659,1.71E-10
2622,0.999465,1.72E-10
2623,0.9994641,1.74E-10
2624,0.9994632,1.75E-10
2625,0.9994624,1.77E-10
2626,0.9994615,1.78E-10
2627,0.9994606,1.80E-10
2628,0.9994597,1.82E-10
2629,0.9994588,1.84E-10
2630,0.9994578,1.86E-10
2631,0.9994569,1.88E-10
2632,0.999456,1.90E-10
2633,0.9994551,1.92E-10
2634,0.9994541,1.94E-10
2635,0.9994533,1.96E-10
2636,0.9994524,1.98E-10
2637,0.9994514,2.01E-10
2638,0.9994506,2.03E-10
2639,0.9994495,2.05E-10
2640,0.9994485,2.08E-10
2641,0.9994476,2.11E-10
2642,0.9994467,2.13E-10
2643,0.9994457,2.16E-10
2644,0.9994447,2.19E-10
2645,0.9994438,2.22E-10
2646,0.9994427,2.25E-10
2647,0.9994418,2.28E-10
2648,0.9994408,2.31E-10
2649,0.9994398,2.34E-10
2650,0.9994388,2.38E-10
2651,0.9994378,2.41E-10
2652,0.9994368,2.45E-10
2653,0.9994358,2.48E-10
2654,0.9994348,2.52E-10
2655,0.9994338,2.56E-10
2656,0.9994327,2.60E-10
2657,0.9994317,2.64E-10
2658,0.9994307,2.68E-10
2659,0.9994296,2.72E-10
2660,0.9994286,2.76E-10
2661,0.9994276,2.80E-10
2662,0.9994264,2.85E-10
2663,0.9994254,2.89E-10
2664,0.9994243,2.94E-10
2665,0.9994232,2.99E-10
2666,0.9994222,3.03E-10
2667,0.9994211,3.08E-10
2668,0.9994199,3.13E-10
2669,0.9994189,3.18E-10
2670,0.9994177,3.23E-10
2671,0.9994166,3.29E-10
2672,0.9994155,3.34E-10
2673,0.9994144,3.39E-10
2674,0.9994133,3.45E-10
2675,0.9994122,3.50E-10
2676,0.9994109,3.56E-10
2677,0.9994099,3.62E-10
2678,0.9994087,3.68E-10
2679,0.9994075,3.74E-10
2680,0.9994063,3.80E-10
2681,0.9994052,3.86E-10
2682,0.999404,3.92E-10
2683,0.9994028,3.98E-10
2684,0.9994016,4.05E-10
2685,0.9994005,4.11E-10
2686,0.9993992,4.18E-10
2687,0.999398,4.24E-10
2688,0.9993967,4.31E-10
2689,0.9993955,4.37E-10
2690,0.9993944,4.44E-10
2691,0.9993931,4.51E-10
2692,0.9993919,4.57E-10
2693,0.9993906,4.64E-10
2694,0.9993893,4.71E-10
2695,0.999388,4.78E-10
2696,0.9993868,4.85E-10
2697,0.9993855,4.92E-10
2698,0.9993842,4.99E-10
2699,0.9993829,5.06E-10
2700,0.9993816,5.12E-10
2701,0.9993804,5.19E-10
2702,0.999379,5.26E-10
2703,0.9993777,5.33E-10
2704,0.9993764,5.40E-10
2705,0.999375,5.47E-10
2706,0.9993736,5.54E-10
2707,0.9993722,5.61E-10
2708,0.9993709,5.68E-10
2709,0.9993696,5.74E-10
2710,0.9993681,5.81E-10
2711,0.9993668,5.88E-10
2712,0.9993653,5.95E-10
2713,0.999364,6.01E-10
2714,0.9993625,6.08E-10
2715,0.9993611,6.14E-10
2716,0.9993597,6.21E-10
2717,0.9993582,6.27E-10
2718,0.9993567,6.33E-10
2719,0.9993553,6.40E-10
2720,0.9993538,6.46E-10
2721,0.9993524,6.52E-10
2722,0.9993509,6.58E-10
2723,0.9993494,6.64E-10
2724,0.9993479,6.70E-10
2725,0.9993464,6.76E-10
2726,0.9993448,6.81E-10
2727,0.9993433,6.87E-10
2728,0.9993418,6.93E-10
2729,0.9993402,6.98E-10
2730,0.9993387,7.04E-10
2731,0.9993371,7.09E-10
2732,0.9993355,7.15E-10
2733,0.9993339,7.20E-10
2734,0.9993323,7.25E-10
2735,0.9993307,7.31E-10
2736,0.9993291,7.36E-10
2737,0.9993275,7.41E-10
2738,0.9993258,7.46E-10
2739,0.9993241,7.51E-10
2740,0.9993225,7.56E-10
2741,0.9993207,7.61E-10
2742,0.9993191,7.66E-10
2743,0.9993174,7.71E-10
2744,0.9993157,7.76E-10
2745,0.999314,7.81E-10
2746,0.9993122,7.86E-10
2747,0.9993105,7.90E-10
2748,0.9993088,7.95E-10
2749,0.999307,8.00E-10
2750,0.9993052,8.05E-10
2751,0.9993034,8.10E-10
2752,0.9993016,8.15E-10
2753,0.9992998,8.20E-10
2754,0.9992979,8.25E-10
2755,0.9992961,8.30E-10
2756,0.9992942,8.35E-10
2757,0.9992924,8.40E-10
2758,0.9992905,8.46E-10
2759,0.9992886,8.51E-10
2760,0.9992867,8.56E-10
2761,0.9992847,8.62E-10
2762,0.9992828,8.67E-10
2763,0.9992809,8.73E-10
2764,0.9992789,8.78E-10
2765,0.9992769,8.84E-10
2766,0.9992748,8.90E-10
2767,0.9992729,8.96E-10
2768,0.9992709,9.02E-10
2769,0.9992689,9.08E-10
2770,0.9992669,9.15E-10
2771,0.9992648,9.21E-10
2772,0.9992626,9.28E-10
2773,0.9992605,9.34E-10
2774,0.9992585,9.41E-10
2775,0.9992564,9.48E-10
2776,0.9992542,9.55E-10
2777,0.999252,9.63E-10
2778,0.9992499,9.70E-10
2779,0.9992477,9.78E-10
2780,0.9992455,9.86E-10
2781,0.9992431,9.94E-10
2782,0.9992409,1.00E-09
2783,0.9992387,1.01E-09
2784,0.9992363,1.02E-09
2785,0.9992341,1.03E-09
2786,0.9992317,1.04E-09
2787,0.9992294,1.05E-09
2788,0.999227,1.06E-09
2789,0.9992246,1.07E-09
2790,0.9992222,1.08E-09
2791,0.9992198,1.09E-09
2792,0.9992174,1.10E-09
2793,0.9992149,1.11E-09
2794,0.9992124,1.12E-09
2795,0.9992099,1.13E-09
2796,0.9992074,1.14E-09
2797,0.9992049,1.16E-09
2798,0.9992023,1.17E-09
2799,0.9991997,1.18E-09
2800,0.9991971,1.20E-09
2801,0.9991944,1.21E-09
2802,0.9991918,1.22E-09
2803,0.9991891,1.24E-09
2804,0.9991864,1.25E-09
2805,0.9991836,1.27E-09
2806,0.9991809,1.29E-09
2807,0.9991782,1.30E-09
2808,0.9991753,1.32E-09
2809,0.9991725,1.34E-09
2810,0.9991697,1.35E-09
2811,0.9991667,1.37E-09
2812,0.9991639,1.39E-09
2813,0.9991609,1.41E-09
2814,0.999158,1.43E-09
2815,0.9991549,1.45E-09
2816,0.9991519,1.47E-09
2817,0.9991489,1.49E-09
2818,0.9991459,1.51E-09
2819,0.9991428,1.54E-09
2820,0.9991395,1.56E-09
2821,0.9991364,1.58E-09
2822,0.9991332,1.61E-09
2823,0.99913,1.64E-09
2824,0.9991266,1.66E-09
2825,0.9991233,1.69E-09
2826,0.9991201,1.72E-09
2827,0.9991167,1.75E-09
2828,0.9991133,1.78E-09
2829,0.9991098,1.81E-09
2830,0.9991063,1.84E-09
2831,0.9991028,1.87E-09
2832,0.9990992,1.90E-09
2833,0.9990956,1.94E-09
2834,0.999092,1.97E-09
2835,0.9990883,2.01E-09
2836,0.9990846,2.05E-09
2837,0.9990809,2.09E-09
2838,0.999077,2.13E-09
2839,0.9990731,2.17E-09
2840,0.9990692,2.21E-09
2841,0.9990653,2.25E-09
2842,0.9990613,2.30E-09
2843,0.9990574,2.35E-09
2844,0.9990533,2.39E-09
2845,0.9990491,2.44E-09
2846,0.999045,2.50E-09
2847,0.9990407,2.55E-09
2848,0.9990365,2.60E-09
2849,0.9990321,2.66E-09
2850,0.9990277,2.72E-09
2851,0.9990233,2.78E-09
2852,0.9990188,2.84E-09
2853,0.9990143,2.91E-09
2854,0.9990095,2.97E-09
2855,0.9990049,3.04E-09
2856,0.9990001,3.11E-09
2857,0.9989953,3.19E-09
2858,0.9989904,3.26E-09
2859,0.9989855,3.34E-09
2860,0.9989805,3.43E-09
2861,0.9989755,3.51E-09
2862,0.9989703,3.60E-09
2863,0.9989651,3.69E-09
2864,0.9989598,3.78E-09
2865,0.9989544,3.88E-09
2866,0.998949,3.98E-09
2867,0.9989434,4.09E-09
2868,0.9989378,4.20E-09
2869,0.9989321,4.31E-09
2870,0.9989264,4.42E-09
2871,0.9989205,4.55E-09
2872,0.9989145,4.67E-09
2873,0.9989085,4.80E-09
2874,0.9989023,4.94E-09
2875,0.9988961,5.08E-09
2876,0.9988897,5.22E-09
2877,0.9988832,5.38E-09
2878,0.9988767,5.53E-09
2879,0.99887,5.70E-09
2880,0.9988631,5.87E-09
2881,0.9988563,6.05E-09
2882,0.9988492,6.23E-09
2883,0.9988421,6.42E-09
2884,0.9988348,6.63E-09
2885,0.9988273,6.83E-09
2886,0.9988198,7.05E-09
2887,0.9988121,7.28E-09
2888,0.9988043,7.51E-09
2889,0.9987963,7.76E-09
2890,0.9987882,8.02E-09
2891,0.99878,8.28E-09
2892,0.9987714,8.56E-09
2893,0.9987628,8.85E-09
2894,0.998754,9.16E-09
2895,0.998745,9.48E-09
2896,0.9987358,9.81E-09
2897,0.9987265,1.02E-08
2898,0.9987169,1.05E-08
2899,0.9987071,1.09E-08
2900,0.9986971,1.13E-08
2901,0.9986869,1.17E-08
2902,0.9986764,1.22E-08
2903,0.9986657,1.26E-08
2904,0.9986548,1.31E-08
2905,0.9986436,1.36E-08
2906,0.9986321,1.41E-08
2907,0.9986204,1.47E-08
2908,0.9986083,1.53E-08
2909,0.998596,1.59E-08
2910,0.9985833,1.65E-08
2911,0.9985703,1.72E-08
2912,0.9985569,1.79E-08
2913,0.9985433,1.86E-08
2914,0.9985291,1.94E-08
2915,0.9985147,2.03E-08
2916,0.9984999,2.11E-08
2917,0.9984845,2.20E-08
2918,0.9984687,2.30E-08
2919,0.9984525,2.40E-08
2920,0.9984358,2.51E-08
2921,0.9984185,2.63E-08
2922,0.9984007,2.75E-08
2923,0.9983824,2.87E-08
2924,0.9983634,3.01E-08
2925,0.9983438,3.15E-08
2926,0.9983236,3.31E-08
2927,0.9983027,3.47E-08
2928,0.9982811,3.64E-08
2929,0.9982585,3.82E-08
2930,0.9982353,4.01E-08
2931,0.9982111,4.22E-08
2932,0.9981861,4.44E-08
2933,0.9981601,4.67E-08
2934,0.9981329,4.92E-08
2935,0.9981048,5.18E-08
2936,0.9980754,5.46E-08
2937,0.9980449,5.77E-08
2938,0.998013,6.09E-08
2939,0.9979798,6.43E-08
2940,0.997945,6.80E-08
2941,0.9979085,7.20E-08
2942,0.9978704,7.63E-08
2943,0.9978305,8.09E-08
2944,0.9977885,8.58E-08
2945,0.9977444,9.11E-08
2946,0.9976981,9.68E-08
2947,0.9976493,1.03E-07
2948,0.9975978,1.10E-07
2949,0.9975435,1.17E-07
2950,0.9974859,1.25E-07
2951,0.9974251,1.33E-07
2952,0.9973606,1.42E-07
2953,0.997292,1.52E-07
2954,0.9972192,1.63E-07
2955,0.9971415,1.75E-07
2956,0.9970585,1.88E-07
2957,0.9969699,2.03E-07
2958,0.9968749,2.18E-07
2959,0.9967728,2.35E-07
2960,0.9966632,2.54E-07
2961,0.9965448,2.75E-07
2962,0.9964169,2.98E-07
2963,0.9962785,3.24E-07
2964,0.9961278,3.53E-07
2965,0.9959639,3.84E-07
2966,0.9957846,4.20E-07
2967,0.9955883,4.60E-07
2968,0.9953725,5.05E-07
2969,0.9951344,5.55E-07
2970,0.9948708,6.12E-07
2971,0.9945779,6.77E-07
2972,0.9942508,7.52E-07
2973,0.9938839,8.37E-07
2974,0.9934705,9.35E-07
2975,0.9930026,1.05E-06
2976,0.9924694,1.18E-06
2977,0.9918587,1.33E-06
2978,0.9911538,1.52E-06
2979,0.9903356,1.73E-06
2980,0.9893771,1.99E-06
2981,0.9882455,2.30E-06
2982,0.9868968,2.68E-06
2983,0.9852726,3.15E-06
2984,0.9832945,3.73E-06
2985,0.9808574,4.46E-06
2986,0.9778143,5.39E-06
2987,0.9739617,6.59E-06
2988,0.9690163,8.18E-06
2989,0.9625917,1.03E-05
2990,0.9541708,1.31E-05
2991,0.9431522,1.69E-05
2992,0.9290239,2.19E-05
2993,0.9118093,2.81E-05
2994,0.892674,3.53E-05
2995,0.8741273,4.26E-05
2996,0.8598092,4.87E-05
2997,0.854118,5.20E-05
2998,0.8602489,5.11E-05
2999,0.8767764,4.63E-05
3000,0.8979647,3.95E-05
3001,0.9182163,3.25E-05
3002,0.9350345,2.65E-05
3003,0.9480922,2.17E-05
3004,0.9579873,1.80E-05
3005,0.9654679,1.51E-05
3006,0.9711666,1.29E-05
3007,0.9755627,1.12E-05
3008,0.9790006,9.78E-06
3009,0.9817256,8.66E-06
3010,0.9839149,7.75E-06
3011,0.9856945,7.00E-06
3012,0.9871568,6.37E-06
3013,0.9883711,5.84E-06
3014,0.989388,5.40E-06
3015,0.9902469,5.01E-06
3016,0.9909773,4.68E-06
3017,0.9916028,4.40E-06
3018,0.9921414,4.15E-06
3019,0.9926077,3.93E-06
3020,0.993013,3.74E-06
3021,0.9933672,3.57E-06
3022,0.9936773,3.42E-06
3023,0.99395,3.29E-06
3024,0.9941901,3.17E-06
3025,0.9944019,3.06E-06
3026,0.9945893,2.97E-06
3027,0.994755,2.88E-06
3028,0.9949018,2.81E-06
3029,0.9950317,2.74E-06
3030,0.9951464,2.68E-06
3031,0.9952476,2.63E-06
3032,0.9953369,2.58E-06
3033,0.9954151,2.54E-06
3034,0.9954834,2.50E-06
3035,0.9955425,2.47E-06
3036,0.9955934,2.44E-06
3037,0.9956367,2.42E-06
3038,0.9956728,2.40E-06
3039,0.9957024,2.39E-06
3040,0.9957258,2.37E-06
3041,0.9957435,2.36E-06
3042,0.9957557,2.36E-06
3043,0.9957629,2.36E-06
3044,0.9957651,2.36E-06
3045,0.9957627,2.36E-06
3046,0.9957557,2.36E-06
3047,0.9957443,2.37E-06
3048,0.9957287,2.38E-06
3049,0.9957091,2.40E-06
3050,0.9956854,2.41E-06
3051,0.9956577,2.43E-06
3052,0.9956262,2.46E-06
3053,0.9955906,2.48E-06
3054,0.9955511,2.51E-06
3055,0.9955078,2.54E-06
3056,0.9954607,2.57E-06
3057,0.9954095,2.61E-06
3058,0.9953543,2.65E-06
3059,0.995295,2.69E-06
3060,0.9952316,2.73E-06
3061,0.9951637,2.78E-06
3062,0.9950917,2.84E-06
3063,0.995015,2.89E-06
3064,0.9949337,2.95E-06
3065,0.9948477,3.02E-06
3066,0.9947566,3.08E-06
3067,0.9946604,3.16E-06
3068,0.9945588,3.23E-06
3069,0.9944516,3.31E-06
3070,0.9943383,3.40E-06
3071,0.9942189,3.49E-06
3072,0.9940934,3.59E-06
3073,0.9939606,3.70E-06
3074,0.9938208,3.81E-06
3075,0.9936737,3.92E-06
3076,0.9935185,4.05E-06
3077,0.9933552,4.18E-06
3078,0.993183,4.32E-06
3079,0.9930013,4.47E-06
3080,0.9928099,4.62E-06
3081,0.9926082,4.79E-06
3082,0.9923951,4.97E-06
3083,0.9921706,5.16E-06
3084,0.9919337,5.36E-06
3085,0.9916834,5.57E-06
3086,0.9914191,5.80E-06
3087,0.99114,6.05E-06
3088,0.9908452,6.30E-06
3089,0.9905338,6.58E-06
3090,0.9902045,6.87E-06
3091,0.9898561,7.19E-06
3092,0.9894881,7.52E-06
3093,0.9890987,7.87E-06
3094,0.988687,8.25E-06
3095,0.9882519,8.66E-06
3096,0.9877912,9.09E-06
3097,0.9873047,9.55E-06
3098,0.9867907,1.00E-05
3099,0.9862474,1.06E-05
3100,0.9856745,1.11E-05
