Preliminary design data,,
1901,,
Wavelength (nm),%R,%T
600,0.9338067,6.61E-02
601,0.910232,8.97E-02
602,0.8438635,0.1559157
603,0.5962934,0.4026694
604,0.5953457,0.4043571
605,0.5369779,0.4628018
606,0.6099969,0.3898557
607,0.6342344,0.3656435
608,0.6815845,0.3182935
609,0.8497097,0.1502016
610,0.9519873,4.80E-02
611,0.9810315,1.89E-02
612,0.9905555,9.42E-03
613,0.9943372,5.64E-03
614,0.9960195,3.96E-03
615,0.9967592,3.22E-03
616,0.9969389,3.05E-03
617,0.9965819,3.40E-03
618,0.995256,4.73E-03
619,0.9906785,9.30E-03
620,0.9596965,4.03E-02
621,0.9021966,9.77E-02
622,0.9504108,4.94E-02
623,0.9963317,3.65E-03
624,0.9981359,1.85E-03
625,0.9987655,1.22E-03
626,0.9990215,9.68E-04
627,0.9990988,8.91E-04
628,0.9990392,9.51E-04
629,0.9987922,1.20E-03
630,0.9981082,1.88E-03
631,0.9957091,4.28E-03
632,0.9747567,2.52E-02
633,0.9515195,4.84E-02
634,0.9953907,4.60E-03
635,0.9983069,1.68E-03
636,0.999062,9.28E-04
637,0.9993501,6.40E-04
638,0.9994755,5.14E-04
639,0.9995227,4.67E-04
640,0.9995179,4.71E-04
641,0.9994629,5.26E-04
642,0.999338,6.51E-04
643,0.9990873,9.01E-04
644,0.9985602,1.43E-03
645,0.9972833,2.70E-03
646,0.9932749,6.71E-03
647,0.9727445,2.72E-02
648,0.8661085,0.1338224
649,0.9564398,4.35E-02
650,0.9789347,2.10E-02
651,0.9825968,0.017374
652,0.9784412,2.15E-02
653,0.9565049,4.34E-02
654,0.7973173,0.2021461
655,0.9044585,9.52E-02
656,0.9804111,1.95E-02
657,0.9921216,7.84E-03
658,0.9955691,4.40E-03
659,0.9967583,3.18E-03
660,0.9865392,1.20E-02
661,0.9977988,2.16E-03
662,0.9980298,1.95E-03
663,0.9980046,1.97E-03
664,0.9978098,2.17E-03
665,0.9974206,2.56E-03
666,0.9967549,3.22E-03
667,0.9956487,4.32E-03
668,0.9937915,6.18E-03
669,0.9905844,9.37E-03
670,0.9848309,1.51E-02
671,0.9740193,2.59E-02
672,0.9527127,4.72E-02
673,0.9107528,8.91E-02
674,0.8489713,0.1507714
675,0.8347813,0.1649584
676,0.8829259,0.1168948
677,0.923559,7.63E-02
678,0.9451241,5.48E-02
679,0.9535776,4.63E-02
680,0.9433859,5.63E-02
681,0.8649751,0.133992
682,0.9425232,5.73E-02
683,0.9496185,0.0502896
684,0.9391512,6.08E-02
685,0.9118826,8.81E-02
686,0.8502718,0.1496524
687,0.7166092,0.2832832
688,0.5479798,0.4518793
689,0.5749949,0.4248845
690,0.6657777,0.3341272
691,0.6411187,0.3587714
692,0.6637382,0.3361711
693,0.6822681,0.3176535
694,0.6195201,0.3803831
695,0.5115145,0.4883218
696,0.401609,0.5980034
697,0.8180025,0.1818949
698,0.9107373,8.92E-02
699,0.9465755,5.34E-02
700,0.9635237,3.64E-02
701,0.972323,0.027638
702,0.9770836,2.29E-02
703,0.9795198,2.04E-02
704,0.9803891,1.96E-02
705,0.9799766,2.00E-02
706,0.9782684,2.17E-02
707,0.9749826,2.50E-02
708,0.9695069,3.04E-02
709,0.9607512,3.92E-02
710,0.9469279,5.30E-02
711,0.9253867,7.45E-02
712,0.8929285,0.1069926
713,0.8472337,0.1526724
714,0.7885545,0.2113318
715,0.7183663,0.281493
716,0.6385643,0.3612564
717,0.567882,0.4318867
718,0.5659718,0.433737
719,0.6460074,0.3535781
720,0.7146286,0.2846589
721,0.8441226,0.1555018
722,0.9121906,0.0876209
723,0.9428297,5.70E-02
724,0.958916,4.10E-02
725,0.9680352,3.19E-02
726,0.9733218,2.66E-02
727,0.9762262,2.37E-02
728,0.9774147,2.25E-02
729,0.9770949,2.28E-02
730,0.9750867,2.48E-02
731,0.9706742,0.0292347
732,0.962057,0.0378422
733,0.9446406,5.52E-02
734,0.9053754,0.0944608
735,0.8074787,0.1922475
736,0.6681283,0.3314186
737,0.7481204,0.2513212
738,0.7844146,0.2146708
739,0.9278331,7.19E-02
740,0.9594399,0.0404374
741,0.9717491,2.82E-02
742,0.9776329,0.0222933
743,0.9804537,0.0194818
744,0.9813689,1.86E-02
745,0.9806722,1.93E-02
746,0.9780141,2.19E-02
747,0.9718318,0.0281184
748,0.955704,4.42E-02
749,0.9314198,6.85E-02
750,0.9310828,6.89E-02
751,0.9143973,8.56E-02
752,0.9177418,8.22E-02
753,0.9404725,5.95E-02
754,0.959524,4.04E-02
755,0.9707165,0.0292422
756,0.9767284,2.32E-02
757,0.9795972,2.04E-02
758,0.9802256,1.97E-02
759,0.9786364,0.0213023
760,0.9737127,2.62E-02
761,0.9609743,0.0388243
762,0.8958483,0.1018473
763,0.8588588,0.140688
764,0.861166,0.1384019
765,0.9499623,4.98E-02
766,0.9796517,2.03E-02
767,0.9896892,1.02E-02
768,0.993902,6.05E-03
769,0.9959766,3.98E-03
770,0.9971181,2.85E-03
771,0.9977965,2.17E-03
772,0.9982217,1.75E-03
773,0.9984965,1.48E-03
774,0.9986753,1.30E-03
775,0.9987882,1.18E-03
776,0.998852,1.12E-03
777,0.9988757,1.10E-03
778,0.9988626,1.11E-03
779,0.9988118,1.16E-03
780,0.9987175,1.25E-03
781,0.998569,1.40E-03
782,0.9983456,1.62E-03
783,0.9980125,1.95E-03
784,0.9975083,2.46E-03
785,0.9967201,3.24E-03
786,0.995425,4.53E-03
787,0.9931431,6.81E-03
788,0.9887043,1.12E-02
789,0.9787255,2.12E-02
790,0.9506647,4.92E-02
791,0.8410419,0.1587113
792,0.5800695,0.4194281
793,0.821411,0.1783745
794,0.9237137,7.62E-02
795,0.9553614,4.45E-02
796,0.9676306,3.23E-02
797,0.9470749,5.26E-02
798,0.9730568,2.68E-02
799,0.9797194,2.02E-02
800,0.9816742,0.0182115
801,0.9827682,1.71E-02
802,0.9835042,1.64E-02
803,0.9840289,1.58E-02
804,0.9843562,1.55E-02
805,0.9844198,1.54E-02
806,0.984094,1.57E-02
807,0.9831954,1.66E-02
808,0.981472,1.83E-02
809,0.9785566,0.0211941
810,0.9736708,2.61E-02
811,0.9646223,3.52E-02
812,0.944858,5.50E-02
813,0.8910294,0.1088117
814,0.7277744,0.2720315
815,0.7443658,0.2554437
816,0.6376271,0.3617178
817,0.9582055,4.17E-02
818,0.9812361,1.87E-02
819,0.989105,0.0108431
820,0.9927975,7.16E-03
821,0.9947937,5.17E-03
822,0.9959692,4.00E-03
823,0.9966954,3.27E-03
824,0.99715,2.82E-03
825,0.9974238,2.55E-03
826,0.9975619,2.41E-03
827,0.9975821,2.39E-03
828,0.9974783,2.50E-03
829,0.9972145,2.76E-03
830,0.996696,3.28E-03
831,0.9956548,4.31E-03
832,0.9923865,7.54E-03
833,0.9861812,1.37E-02
834,0.9761477,2.38E-02
835,0.8635291,0.1360631
836,0.8777112,0.1218961
837,0.9819394,1.80E-02
838,0.9936478,6.31E-03
839,0.9968766,3.10E-03
840,0.9981686,1.81E-03
841,0.9987992,1.18E-03
842,0.9991495,8.32E-04
843,0.9993615,6.21E-04
844,0.999498,4.85E-04
845,0.9995899,3.94E-04
846,0.9996541,3.30E-04
847,0.9996998,2.84E-04
848,0.9997329,2.51E-04
849,0.999757,2.27E-04
850,0.9997743,2.10E-04
851,0.9997863,1.98E-04
852,0.999794,1.90E-04
853,0.9997981,1.85E-04
854,0.9997987,1.84E-04
855,0.9997962,1.87E-04
856,0.9997903,1.92E-04
857,0.9997809,2.01E-04
858,0.9997674,2.14E-04
859,0.9997491,2.31E-04
860,0.9997248,2.54E-04
861,0.999693,2.85E-04
862,0.9996514,3.25E-04
863,0.9995967,3.78E-04
864,0.9995241,4.48E-04
865,0.9994262,5.43E-04
866,0.999292,6.73E-04
867,0.9991043,8.56E-04
868,0.9988357,1.12E-03
869,0.998441,1.50E-03
870,0.9978456,2.09E-03
871,0.9969246,2.99E-03
872,0.9954797,4.41E-03
873,0.9932446,6.62E-03
874,0.9900613,9.76E-03
875,0.9864386,1.34E-02
876,0.9839267,1.59E-02
877,0.9836677,1.61E-02
878,0.9849734,1.49E-02
879,0.986609,1.33E-02
880,0.9879407,1.20E-02
881,0.9888141,0.0111046
882,0.9892468,0.0106812
883,0.9892769,1.07E-02
884,0.9889205,1.10E-02
885,0.9881603,1.18E-02
886,0.9869413,1.30E-02
887,0.9851601,1.47E-02
888,0.9826208,1.71E-02
889,0.9790768,2.03E-02
890,0.9757706,2.37E-02
891,0.9726874,2.71E-02
892,0.9697329,3.01E-02
893,0.9679054,3.20E-02
894,0.9677715,3.22E-02
895,0.9691759,3.08E-02
896,0.9714752,2.85E-02
897,0.974002,2.60E-02
898,0.9763237,2.36E-02
899,0.9782445,2.17E-02
900,0.9797136,2.03E-02
901,0.980745,1.92E-02
902,0.9813737,1.86E-02
903,0.9816297,1.83E-02
904,0.9815305,1.84E-02
905,0.981077,1.89E-02
906,0.9802511,1.97E-02
907,0.9790124,2.10E-02
908,0.9772912,2.27E-02
909,0.9749782,2.50E-02
910,0.9719101,2.81E-02
911,0.9678813,3.21E-02
912,0.9627982,3.72E-02
913,0.9569615,4.30E-02
914,0.9505785,4.94E-02
915,0.9430341,5.69E-02
916,0.9335977,6.64E-02
917,0.9218223,7.81E-02
918,0.907388,9.26E-02
919,0.8900248,0.109927
920,0.8695331,0.130415
921,0.8458865,0.1540578
922,0.8191283,0.1808118
923,0.7895315,0.2104042
924,0.7575635,0.2423677
925,0.7238751,0.2760516
926,0.6892841,0.3106381
927,0.6547586,0.3451595
928,0.6213919,0.3785225
929,0.5903473,0.4095638
930,0.5627529,0.4371555
931,0.539546,0.4603604
932,0.5213016,0.4786034
933,0.5081025,0.4918016
934,0.4995006,0.500403
935,0.4945833,0.5053198
936,0.4921109,0.5077916
937,0.4906669,0.5092346
938,0.4887672,0.5111326
939,0.484903,0.5149942
940,0.4775172,0.5223762
941,0.4649581,0.5349301
942,0.4454227,0.5544586
943,0.4170895,0.582783
944,0.3785283,0.621334
945,0.3295588,0.6702919
946,0.2723843,0.7274551
947,0.2121944,0.7876353
948,0.1561184,0.8437049
949,0.110516,0.8893051
950,7.85E-02,0.9213462
951,5.94E-02,0.9404362
952,5.04E-02,0.9494697
953,0.0479301,0.9519076
954,4.91E-02,0.9507261
955,5.18E-02,0.9480748
956,5.45E-02,0.9453235
957,5.66E-02,0.9432326
958,5.77E-02,0.9421233
959,5.78E-02,0.9420174
960,5.71E-02,0.9427463
961,5.58E-02,0.9440399
962,5.43E-02,0.9455996
963,5.27E-02,0.9471595
964,5.13E-02,0.9485227
965,5.03E-02,0.9495803
966,4.96E-02,0.9503093
967,4.91E-02,0.9507549
968,4.89E-02,0.9510047
969,4.87E-02,0.9511606
970,4.86E-02,0.9513147
971,4.83E-02,0.9515322
972,4.80E-02,0.9518409
973,4.76E-02,0.952229
974,4.72E-02,0.95265
975,4.68E-02,0.953031
976,4.66E-02,0.9532897
977,4.65E-02,0.9533498
978,4.67E-02,0.9531572
979,4.72E-02,0.9526922
980,0.0478997,0.9519747
981,4.88E-02,0.9510641
982,0.0498295,0.9500462
983,5.09E-02,0.949024
984,5.18E-02,0.9481021
985,5.25E-02,0.9473719
986,5.30E-02,0.9469023
987,5.31E-02,0.9467303
988,5.30E-02,0.9468586
989,5.26E-02,0.9472548
990,5.20E-02,0.9478555
991,5.13E-02,0.9485723
992,5.06E-02,0.9493017
993,4.99E-02,0.9499371
994,4.95E-02,0.9503818
995,4.93E-02,0.9505612
996,4.94E-02,0.9504345
997,4.99E-02,0.95
998,5.06E-02,0.9492961
999,0.051486,0.9483963
1000,5.25E-02,0.947399
1001,5.35E-02,0.946416
1002,5.43E-02,0.945556
1003,5.50E-02,0.9449149
1004,5.53E-02,0.9445657
1005,5.53E-02,0.9445514
1006,5.50E-02,0.944883
1007,5.43E-02,0.9455386
1008,5.34E-02,0.9464667
1009,0.0522948,0.9475908
1010,5.11E-02,0.9488159
1011,4.98E-02,0.9500367
1012,4.87E-02,0.9511466
1013,4.78E-02,0.9520485
1014,4.72E-02,0.9526638
1015,4.69E-02,0.9529384
1016,4.70E-02,0.952856
1017,4.75E-02,0.9524329
1018,4.82E-02,0.9517184
1019,4.91E-02,0.9507893
1020,5.01E-02,0.9497412
1021,0.05121,0.9486781
1022,5.22E-02,0.9477003
1023,5.30E-02,0.9468962
1024,5.36E-02,0.9463342
1025,5.38E-02,0.9460574
1026,0.0538088,0.9460809
1027,0.0534972,0.9463927
1028,5.29E-02,0.9469549
1029,5.22E-02,0.9477086
1030,5.13E-02,0.9485788
1031,5.04E-02,0.9494815
1032,4.96E-02,0.9503304
1033,4.88E-02,0.9510447
1034,4.83E-02,0.9515564
1035,4.81E-02,0.9518162
1036,4.81E-02,0.9517985
1037,4.84E-02,0.9515039
1038,4.89E-02,0.9509591
1039,4.97E-02,0.950215
1040,5.06E-02,0.949341
1041,5.15E-02,0.9484192
1042,5.24E-02,0.9475352
1043,5.31E-02,0.9467708
1044,5.37E-02,0.9461979
1045,5.40E-02,0.9458709
1046,0.0540708,0.9458228
1047,0.0538312,0.9460625
1048,5.33E-02,0.9465746
1049,5.26E-02,0.94732
1050,5.17E-02,0.9482393
1051,5.06E-02,0.9492568
1052,4.96E-02,0.9502871
1053,4.87E-02,0.9512405
1054,4.79E-02,0.9520314
1055,4.73E-02,0.9525846
1056,4.71E-02,0.952842
1057,4.71E-02,0.9527677
1058,4.75E-02,0.952352
1059,4.83E-02,0.9516116
1060,4.93E-02,0.9505895
1061,0.0505412,0.9493543
1062,5.19E-02,0.9479856
1063,5.33E-02,0.9465766
1064,5.47E-02,0.9452235
1065,0.055877,0.9440199
1066,0.0568481,0.943049
1067,5.75E-02,0.9423791
1068,0.0578395,0.942058
1069,5.78E-02,0.9421118
1070,5.74E-02,0.9425415
1071,5.66E-02,0.9433244
1072,5.55E-02,0.9444145
1073,5.42E-02,0.9457452
1074,5.27E-02,0.9472334
1075,5.11E-02,0.9487844
1076,4.96E-02,0.9502974
1077,4.82E-02,0.9516727
1078,4.71E-02,0.9528185
1079,4.62E-02,0.9536564
1080,4.58E-02,0.954129
1081,4.57E-02,0.9542032
1082,4.60E-02,0.9538709
1083,4.67E-02,0.9531525
1084,4.78E-02,0.9520975
1085,0.0491292,0.9507694
1086,5.06E-02,0.9492524
1087,5.23E-02,0.9476406
1088,5.39E-02,0.9460319
1089,5.54E-02,0.9445215
1090,0.056704,0.9431963
1091,0.0577707,0.9421299
1092,5.85E-02,0.9413788
1093,5.89E-02,0.9409802
1094,5.90E-02,0.9409501
1095,5.86E-02,0.9412831
1096,5.79E-02,0.9419531
1097,5.70E-02,0.9429148
1098,5.58E-02,0.9441065
1099,5.44E-02,0.9454535
1100,5.30E-02,0.9468721
1101,5.16E-02,0.9482717
1102,5.03E-02,0.9495702
1103,4.92E-02,0.950689
1104,4.83E-02,0.9515615
1105,4.78E-02,0.9521369
1106,0.0475166,0.9523844
1107,4.76E-02,0.9522945
1108,4.80E-02,0.9518795
1109,4.87E-02,0.9511722
1110,4.97E-02,0.9502234
1111,5.08E-02,0.9490978
1112,5.20E-02,0.9478696
1113,5.33E-02,0.9466173
1114,5.45E-02,0.945419
1115,5.56E-02,0.9443471
1116,5.64E-02,0.9434651
1117,5.71E-02,0.9428234
1118,5.74E-02,0.9424571
1119,5.75E-02,0.9423848
1120,5.73E-02,0.942607
1121,5.68E-02,0.9431078
1122,5.61E-02,0.943853
1123,5.51E-02,0.9447942
1124,5.40E-02,0.9458709
1125,5.29E-02,0.947014
1126,5.18E-02,0.9481502
1127,5.07E-02,0.9492059
1128,4.98E-02,0.9501124
1129,4.91E-02,0.95081
1130,4.87E-02,0.9512507
1131,4.85E-02,0.9514053
1132,4.86E-02,0.9512609
1133,4.91E-02,0.9508238
1134,4.98E-02,0.9501176
1135,5.07E-02,0.9491822
1136,5.18E-02,0.9480704
1137,5.31E-02,0.9468449
1138,5.43E-02,0.9455739
1139,5.56E-02,0.9443274
1140,5.67E-02,0.9431736
1141,5.77E-02,0.9421769
1142,5.85E-02,0.9413889
1143,0.0590532,0.9408532
1144,5.93E-02,0.9406006
1145,5.93E-02,0.9406477
1146,5.89E-02,0.9409962
1147,5.83E-02,0.9416329
1148,5.74E-02,0.9425291
1149,5.63E-02,0.9436424
1150,5.50E-02,0.944918
1151,5.36E-02,0.9462912
1152,5.22E-02,0.9476902
1153,5.09E-02,0.9490404
1154,4.96E-02,0.9502683
1155,4.86E-02,0.9513058
1156,4.78E-02,0.9520949
1157,4.73E-02,0.952591
1158,4.71E-02,0.9527662
1159,4.73E-02,0.952611
1160,4.78E-02,0.9521345
1161,4.85E-02,0.9513642
1162,4.96E-02,0.9503428
1163,5.08E-02,0.9491262
1164,5.21E-02,0.9477792
1165,5.35E-02,0.946372
1166,5.49E-02,0.9449759
1167,5.62E-02,0.9436602
1168,5.74E-02,0.9424884
1169,5.84E-02,0.941516
1170,5.91E-02,0.9407884
1171,5.96E-02,0.9403387
1172,5.97E-02,0.9401874
1173,5.96E-02,0.940341
1174,5.91E-02,0.9407923
1175,5.84E-02,0.9415199
1176,5.74E-02,0.9424892
1177,5.63E-02,0.9436535
1178,5.50E-02,0.9449553
1179,0.0535796,0.9463289
1180,0.0522051,0.9477033
1181,5.09E-02,0.9490052
1182,4.97E-02,0.9501641
1183,4.88E-02,0.9511152
1184,4.81E-02,0.9518039
1185,4.77E-02,0.9521891
1186,4.77E-02,0.9522463
1187,4.79E-02,0.9519687
1188,4.85E-02,0.9513679
1189,4.94E-02,0.9504728
1190,5.06E-02,0.9493281
1191,5.19E-02,0.9479902
1192,5.34E-02,0.9465249
1193,5.49E-02,0.9450024
1194,5.64E-02,0.9434941
1195,5.78E-02,0.942069
1196,5.91E-02,0.9407907
1197,6.02E-02,0.9397145
1198,6.10E-02,0.9388862
1199,6.16E-02,0.9383399
1200,6.18E-02,0.9380975
1201,6.17E-02,0.9381675
1202,6.14E-02,0.9385445
1203,0.060701,0.9392101
1204,5.98E-02,0.9401322
1205,5.86E-02,0.9412659
1206,5.74E-02,0.9425545
1207,5.60E-02,0.9439312
1208,5.46E-02,0.9453215
1209,5.33E-02,0.9466462
1210,5.21E-02,0.9478253
1211,5.11E-02,0.9487826
1212,5.05E-02,0.9494503
1213,5.01E-02,0.9497733
1214,5.02E-02,0.9497135
1215,0.0506572,0.949253
1216,5.15E-02,0.9483953
1217,0.052745,0.9471655
1218,5.43E-02,0.9456092
1219,5.61E-02,0.9437889
1220,5.81E-02,0.9417803
1221,6.02E-02,0.9396679
1222,6.24E-02,0.9375388
1223,6.44E-02,0.9354791
1224,6.63E-02,0.9335698
1225,6.80E-02,0.931883
1226,6.94E-02,0.9304802
1227,7.05E-02,0.9294099
1228,0.0712061,0.928707
1229,0.0715204,0.9283928
1230,7.14E-02,0.9284741
1231,7.10E-02,0.9289445
1232,0.0701294,0.9297835
1233,6.90E-02,0.9309579
1234,6.75E-02,0.9324214
1235,0.0657967,0.9341156
1236,6.39E-02,0.9359709
1237,6.20E-02,0.9379078
1238,6.01E-02,0.9398391
1239,5.82E-02,0.9416728
1240,5.66E-02,0.9433163
1241,5.52E-02,0.9446811
1242,5.42E-02,0.9456885
1243,5.36E-02,0.9462752
1244,0.0535126,0.9463977
1245,0.0538725,0.9460378
1246,5.47E-02,0.9452042
1247,0.0559773,0.9439333
1248,5.76E-02,0.9422875
1249,5.96E-02,0.9403514
1250,6.17E-02,0.9382262
1251,6.39E-02,0.9360232
1252,6.61E-02,0.9338568
1253,6.81E-02,0.9318375
1254,6.98E-02,0.9300661
1255,7.13E-02,0.9286287
1256,7.23E-02,0.9275931
1257,7.29E-02,0.9270061
1258,7.30E-02,0.9268926
1259,7.27E-02,0.9272556
1260,7.18E-02,0.9280757
1261,7.06E-02,0.9293128
1262,6.90E-02,0.9309078
1263,6.71E-02,0.9327841
1264,6.51E-02,0.9348497
1265,6.29E-02,0.9369991
1266,6.08E-02,0.9391173
1267,5.88E-02,0.9410826
1268,5.71E-02,0.9427717
1269,5.58E-02,0.9440655
1270,5.51E-02,0.9448554
1271,5.49E-02,0.9450511
1272,5.53E-02,0.9445885
1273,5.65E-02,0.9434361
1274,5.83E-02,0.9416016
1275,6.08E-02,0.9391344
1276,6.38E-02,0.9361262
1277,6.72E-02,0.9327078
1278,7.09E-02,0.9290424
1279,7.46E-02,0.9253163
1280,7.82E-02,0.9217289
1281,0.0814283,0.9184821
1282,8.41E-02,0.9157641
1283,8.62E-02,0.9137449
1284,8.73E-02,0.9125655
1285,8.76E-02,0.9123306
1286,8.68E-02,0.9131023
1287,8.50E-02,0.9148952
1288,8.22E-02,0.9176719
1289,7.86E-02,0.9213402
1290,7.42E-02,0.9257506
1291,6.92E-02,0.9306965
1292,6.40E-02,0.9359163
1293,5.88E-02,0.9411009
1294,5.40E-02,0.9459053
1295,4.99E-02,0.949968
1296,4.70E-02,0.9529376
1297,4.54E-02,0.9545038
1298,4.55E-02,0.9544334
1299,4.73E-02,0.9526038
1300,5.09E-02,0.9490293
1301,5.60E-02,0.943876
1302,6.24E-02,0.9374571
1303,6.97E-02,0.9302155
1304,7.72E-02,0.9226891
1305,8.44E-02,0.9154649
1306,9.08E-02,0.9091215
1307,9.57E-02,0.904159
1308,9.90E-02,0.9009073
1309,0.1004953,0.899394
1310,0.1007264,0.8991585
1311,0.1008762,0.8990031
1312,0.1031293,0.8967433
1313,0.1107096,0.8891559
1314,0.1273445,0.8725145
1315,0.1557967,0.8440579
1316,0.1958643,0.8039892
1317,0.2434363,0.7564195
1318,0.2920066,0.7078544
1319,0.3357379,0.6641297
1320,0.3716539,0.6282201
1321,0.399874,0.6000059
1322,0.422684,0.5772009
1323,0.4434166,0.5564721
1324,0.465586,0.5343058
1325,0.4921768,0.5077178
1326,0.5250172,0.4748804
1327,0.5643435,0.4355576
1328,0.6087783,0.3911269
1329,0.6558158,0.3440941
1330,0.7026178,0.2972972
1331,0.7467502,0.2531702
1332,0.7865897,0.213336
1333,0.8213692,0.1785614
1334,0.8509991,0.1489362
1335,0.8758196,0.1241198
1336,0.8963873,0.1035561
1337,0.9133241,8.66E-02
1338,0.9272313,7.27E-02
1339,0.938646,6.13E-02
1340,0.9480276,0.0519274
1341,0.9557554,4.42E-02
1342,0.9621451,3.78E-02
1343,0.9674491,3.25E-02
1344,0.9718707,2.81E-02
1345,0.9755728,2.44E-02
1346,0.9786865,2.13E-02
1347,0.9813172,0.0186491
1348,0.9835495,1.64E-02
1349,0.985452,1.45E-02
1350,0.9870804,0.0128888
1351,0.9884798,1.15E-02
1352,0.9896873,1.03E-02
1353,0.9907331,9.24E-03
1354,0.9916424,8.33E-03
1355,0.9924355,7.54E-03
1356,0.9931298,6.84E-03
1357,0.9937397,6.23E-03
1358,0.9942769,5.70E-03
1359,0.9947516,5.22E-03
1360,0.9951723,4.80E-03
1361,0.995546,4.43E-03
1362,0.9958791,4.10E-03
1363,0.9961765,3.80E-03
1364,0.9964428,3.53E-03
1365,0.9966817,3.30E-03
1366,0.9968966,3.08E-03
1367,0.9970902,0.0028874
1368,0.9972649,2.71E-03
1369,0.9974229,2.56E-03
1370,0.997566,2.41E-03
1371,0.9976959,2.28E-03
1372,0.9978138,2.16E-03
1373,0.9979211,2.06E-03
1374,0.9980189,1.96E-03
1375,0.9981079,1.87E-03
1376,0.9981892,1.79E-03
1377,0.9982633,1.72E-03
1378,0.9983311,1.65E-03
1379,0.9983929,1.59E-03
1380,0.9984494,1.53E-03
1381,0.9985009,1.48E-03
1382,0.9985479,1.43E-03
1383,0.9985907,1.39E-03
1384,0.9986298,1.35E-03
1385,0.9986653,1.32E-03
1386,0.9986976,1.28E-03
1387,0.9987268,1.25E-03
1388,0.9987531,1.23E-03
1389,0.9987768,1.20E-03
1390,0.9987979,1.18E-03
1391,0.9988167,1.16E-03
1392,0.9988331,1.15E-03
1393,0.9988474,1.13E-03
1394,0.9988596,1.12E-03
1395,0.9988698,1.11E-03
1396,0.9988781,1.10E-03
1397,0.9988844,1.10E-03
1398,0.998889,1.09E-03
1399,0.9988918,1.09E-03
1400,0.9988927,1.09E-03
1401,0.9988919,1.09E-03
1402,0.9988894,1.09E-03
1403,0.9988851,1.10E-03
1404,0.998879,1.10E-03
1405,0.998871,1.11E-03
1406,0.9988613,1.12E-03
1407,0.9988496,1.13E-03
1408,0.9988359,1.15E-03
1409,0.9988202,1.16E-03
1410,0.9988025,1.18E-03
1411,0.9987825,1.20E-03
1412,0.9987603,1.22E-03
1413,0.9987356,1.25E-03
1414,0.9987084,1.27E-03
1415,0.9986786,1.30E-03
1416,0.9986458,1.33E-03
1417,0.9986101,1.37E-03
1418,0.9985711,1.41E-03
1419,0.9985287,1.45E-03
1420,0.9984825,1.50E-03
1421,0.9984324,1.55E-03
1422,0.9983779,1.60E-03
1423,0.9983188,1.66E-03
1424,0.9982547,1.73E-03
1425,0.998185,1.79E-03
1426,0.9981094,1.87E-03
1427,0.9980273,1.95E-03
1428,0.9979381,2.04E-03
1429,0.9978412,2.14E-03
1430,0.9977357,2.24E-03
1431,0.9976209,2.36E-03
1432,0.9974958,2.48E-03
1433,0.9973594,2.62E-03
1434,0.9972104,2.77E-03
1435,0.9970477,2.93E-03
1436,0.9968695,3.11E-03
1437,0.9966744,3.30E-03
1438,0.9964601,3.52E-03
1439,0.9962248,3.75E-03
1440,0.9959659,4.01E-03
1441,0.995681,4.30E-03
1442,0.9953667,4.61E-03
1443,0.9950191,4.96E-03
1444,0.9946343,5.34E-03
1445,0.9942072,5.77E-03
1446,0.9937325,6.24E-03
1447,0.9932037,6.77E-03
1448,0.9926136,7.36E-03
1449,0.9919536,8.02E-03
1450,0.991214,8.76E-03
1451,0.9903831,9.59E-03
1452,0.9894479,1.05E-02
1453,0.9883925,1.16E-02
1454,0.9871988,1.28E-02
1455,0.9858455,1.41E-02
1456,0.9843072,1.57E-02
1457,0.9825546,1.74E-02
1458,0.9805524,1.94E-02
1459,0.9782595,2.17E-02
1460,0.975627,2.43E-02
1461,0.9725909,2.74E-02
1462,0.9690867,3.09E-02
1463,0.9650331,3.49E-02
1464,0.9603333,3.96E-02
1465,0.9548738,4.51E-02
1466,0.948521,5.14E-02
1467,0.9411196,5.88E-02
1468,0.9324899,6.75E-02
1469,0.9224278,0.0775227
1470,0.9107059,8.92E-02
1471,0.8970779,0.1028676
1472,0.8812894,0.1186533
1473,0.863095,0.1368446
1474,0.8422867,0.1576499
1475,0.8187329,0.1812005
1476,0.7924302,0.2074999
1477,0.7635617,0.236365
1478,0.7325524,0.2673713
1479,0.7001024,0.2998184
1480,0.6671803,0.3327382
1481,0.6350313,0.3648854
1482,0.6048096,0.3951059
1483,0.5776541,0.4222609
1484,0.5544469,0.4454683
1485,0.5356988,0.4642171
1486,0.5215133,0.4784037
1487,0.5116299,0.4882887
1488,0.5055206,0.4943995
1489,0.5025076,0.4974144
1490,0.5018681,0.4980555
1491,0.5029139,0.4970113
1492,0.5050383,0.4948883
1493,0.5077373,0.4921903
1494,0.5106121,0.4893164
1495,0.5133598,0.4865694
1496,0.5157597,0.4841698
1497,0.5176583,0.4822713
1498,0.5189541,0.4809754
1499,0.5195851,0.480344
1500,0.5195184,0.4804102
1501,0.5187408,0.4811868
1502,0.5172474,0.4826791
1503,0.5150415,0.4848837
1504,0.5121248,0.4877988
1505,0.5084915,0.4914302
1506,0.5041212,0.4957983
1507,0.4989719,0.5009451
1508,0.4929715,0.5069428
1509,0.4860082,0.513903
1510,0.4779209,0.5219868
1511,0.4684891,0.5314146
1512,0.4574249,0.5424744
1513,0.4443699,0.5555245
1514,0.4289029,0.570986
1515,0.4105678,0.5893152
1516,0.3889299,0.6109467
1517,0.3636746,0.6361954
1518,0.3347452,0.665118
1519,0.3025041,0.6973529
1520,0.2678605,0.731991
1521,0.2322865,0.7675607
1522,0.1976491,0.8021957
1523,0.1658658,0.8339785
1524,0.1384936,0.8613521
1525,0.1164229,0.8834261
1526,9.98E-02,0.9000616
1527,8.81E-02,0.9117416
1528,0.0805397,0.9193237
1529,7.61E-02,0.9237946
1530,7.38E-02,0.9260895
1531,7.29E-02,0.9269915
1532,7.28E-02,0.9271039
1533,7.30E-02,0.9268501
1534,0.0733861,0.9265015
1535,7.37E-02,0.9262081
1536,7.39E-02,0.926029
1537,7.39E-02,0.9259586
1538,7.39E-02,0.9259494
1539,7.40E-02,0.9259303
1540,7.41E-02,0.9258214
1541,7.44E-02,0.9255461
1542,7.49E-02,0.925041
1543,7.56E-02,0.9242609
1544,7.67E-02,0.9231811
1545,7.81E-02,0.9218
1546,7.98E-02,0.9201372
1547,8.17E-02,0.9182307
1548,8.38E-02,0.9161332
1549,8.60E-02,0.9139073
1550,8.83E-02,0.9116213
1551,9.06E-02,0.9093442
1552,9.28E-02,0.9071434
1553,9.48E-02,0.9050806
1554,9.67E-02,0.9032111
1555,9.83E-02,0.9015814
1556,9.97E-02,0.9002299
1557,0.1007268,0.8991861
1558,0.1014422,0.8984714
1559,0.1018147,0.8980994
1560,0.1018377,0.8980768
1561,0.1015099,0.898405
1562,0.1008363,0.8990788
1563,9.98E-02,0.9000885
1564,9.85E-02,0.9014199
1565,9.69E-02,0.9030546
1566,9.49E-02,0.9049706
1567,9.28E-02,0.907142
1568,9.04E-02,0.9095395
1569,8.78E-02,0.9121298
1570,8.50E-02,0.9148764
1571,8.22E-02,0.9177395
1572,7.92E-02,0.9206762
1573,7.63E-02,0.9236408
1574,7.33E-02,0.9265862
1575,7.05E-02,0.9294632
1576,6.77E-02,0.9322233
1577,6.51E-02,0.9348184
1578,6.27E-02,0.937203
1579,0.0605793,0.9393354
1580,5.87E-02,0.9411785
1581,5.72E-02,0.942701
1582,5.60E-02,0.9438815
1583,0.0552097,0.9447052
1584,5.47E-02,0.9451663
1585,5.46E-02,0.9452679
1586,5.49E-02,0.9450215
1587,5.55E-02,0.9444474
1588,5.63E-02,0.9435734
1589,5.75E-02,0.9424329
1590,5.89E-02,0.9410651
1591,6.04E-02,0.9395123
1592,6.21E-02,0.9378195
1593,6.39E-02,0.9360319
1594,6.57E-02,0.934195
1595,6.76E-02,0.9323521
1596,6.94E-02,0.9305447
1597,7.11E-02,0.9288105
1598,7.27E-02,0.9271836
1599,7.42E-02,0.925694
1600,7.56E-02,0.9243674
1601,7.67E-02,0.9232244
1602,7.76E-02,0.922282
1603,7.84E-02,0.9215522
1604,7.89E-02,0.9210429
1605,7.92E-02,0.9207581
1606,7.92E-02,0.9206983
1607,0.0790643,0.9208605
1608,0.0786868,0.9212382
1609,7.81E-02,0.9218224
1610,0.0773237,0.9226016
1611,0.0763638,0.9235616
1612,7.52E-02,0.9246864
1613,7.40E-02,0.9259583
1614,7.26E-02,0.9273575
1615,0.0710623,0.9288633
1616,6.95E-02,0.930454
1617,6.78E-02,0.9321065
1618,6.61E-02,0.9337974
1619,6.44E-02,0.9355032
1620,0.0627259,0.9371998
1621,6.11E-02,0.9388674
1622,0.0594468,0.9404789
1623,5.79E-02,0.9420118
1624,5.65E-02,0.943445
1625,5.52E-02,0.9447592
1626,5.40E-02,0.9459368
1627,0.0529635,0.9469622
1628,5.21E-02,0.9478226
1629,5.14E-02,0.948508
1630,5.09E-02,0.9490108
1631,5.06E-02,0.9493273
1632,5.05E-02,0.9494564
1633,5.05E-02,0.9494001
1634,5.08E-02,0.9491641
1635,5.12E-02,0.9487566
1636,5.17E-02,0.9481885
1637,5.25E-02,0.9474737
1638,0.053299,0.9466279
1639,5.43E-02,0.9456689
1640,5.53E-02,0.944616
1641,5.64E-02,0.9434916
1642,5.76E-02,0.9423147
1643,5.88E-02,0.9411064
1644,6.00E-02,0.9398878
1645,6.12E-02,0.9386796
1646,6.24E-02,0.9375018
1647,6.36E-02,0.9363732
1648,6.46E-02,0.9353116
1649,6.56E-02,0.934333
1650,6.65E-02,0.9334524
1651,6.72E-02,0.9326823
1652,6.79E-02,0.9320338
1653,6.84E-02,0.9315162
1654,6.88E-02,0.9311362
1655,6.90E-02,0.9308994
1656,6.91E-02,0.9308088
1657,0.0690644,0.9308659
1658,6.89E-02,0.9310701
1659,6.85E-02,0.9314192
1660,6.80E-02,0.931909
1661,6.74E-02,0.9325348
1662,6.66E-02,0.9332924
1663,6.58E-02,0.9341702
1664,6.48E-02,0.9351584
1665,0.0636849,0.9362456
1666,6.25E-02,0.9374195
1667,6.13E-02,0.938667
1668,6.00E-02,0.9399741
1669,0.0586043,0.941326
1670,5.72E-02,0.9427076
1671,5.58E-02,0.9441036
1672,5.44E-02,0.9454983
1673,5.31E-02,0.9468762
1674,5.17E-02,0.948222
1675,5.04E-02,0.9495209
1676,0.0491713,0.9507586
1677,4.80E-02,0.9519217
1678,4.69E-02,0.9529977
1679,4.60E-02,0.9539753
1680,4.51E-02,0.9548445
1681,4.43E-02,0.9555954
1682,4.37E-02,0.9562155
1683,4.32E-02,0.9567068
1684,4.29E-02,0.9570658
1685,4.26E-02,0.9572904
1686,4.25E-02,0.9573805
1687,4.26E-02,0.9573376
1688,4.28E-02,0.9571651
1689,4.31E-02,0.9568678
1690,4.35E-02,0.956452
1691,4.40E-02,0.9559252
1692,4.46E-02,0.9552967
1693,4.54E-02,0.9545764
1694,4.62E-02,0.9537752
1695,4.70E-02,0.9529052
1696,4.80E-02,0.9519783
1697,4.89E-02,0.9510074
1698,4.99E-02,0.9500054
1699,5.09E-02,0.9489855
1700,5.20E-02,0.9479603
1701,5.30E-02,0.9469411
1702,5.40E-02,0.9459416
1703,5.50E-02,0.9449738
1704,5.59E-02,0.9440485
1705,5.68E-02,0.9431762
1706,0.0575669,0.9423662
1707,5.83E-02,0.9416273
1708,5.90E-02,0.940967
1709,5.95E-02,0.940392
1710,6.00E-02,0.9399083
1711,6.04E-02,0.9395198
1712,6.07E-02,0.9392299
1713,6.09E-02,0.939041
1714,6.10E-02,0.9389539
1715,6.10E-02,0.938969
1716,6.08E-02,0.9390852
1717,6.06E-02,0.9393005
1718,6.03E-02,0.9396117
1719,5.99E-02,0.9400149
1720,5.94E-02,0.9405051
1721,0.0588593,0.9410751
1722,5.82E-02,0.9417194
1723,0.0575039,0.9424305
1724,5.67E-02,0.9432006
1725,5.59E-02,0.9440208
1726,5.51E-02,0.9448822
1727,5.42E-02,0.9457749
1728,5.32E-02,0.9466892
1729,5.23E-02,0.9476149
1730,5.14E-02,0.9485415
1731,5.05E-02,0.9494587
1732,0.0495781,0.9503562
1733,4.87E-02,0.9512238
1734,4.79E-02,0.9520517
1735,4.71E-02,0.9528304
1736,4.64E-02,0.953551
1737,0.0457291,0.9542051
1738,4.51E-02,0.9547851
1739,4.47E-02,0.9552841
1740,4.42E-02,0.955696
1741,0.0439184,0.9560159
1742,4.37E-02,0.9562396
1743,4.36E-02,0.956364
1744,4.35E-02,0.9563873
1745,0.0436259,0.9563085
1746,4.38E-02,0.9561279
1747,4.41E-02,0.9558465
1748,4.45E-02,0.9554667
1749,4.49E-02,0.9549919
1750,4.55E-02,0.9544262
1751,4.62E-02,0.9537748
1752,4.69E-02,0.9530434
1753,4.77E-02,0.952239
1754,4.86E-02,0.9513687
1755,4.95E-02,0.9504404
1756,5.05E-02,0.9494624
1757,5.15E-02,0.9484434
1758,5.25E-02,0.9473921
1759,5.36E-02,0.9463178
1760,5.47E-02,0.9452296
1761,5.58E-02,0.9441357
1762,5.69E-02,0.9430463
1763,5.80E-02,0.9419701
1764,5.90E-02,0.9409157
1765,6.00E-02,0.9398916
1766,6.10E-02,0.9389056
1767,6.20E-02,0.9379653
1768,6.29E-02,0.9370775
1769,6.37E-02,0.9362489
1770,6.45E-02,0.9354853
1771,6.51E-02,0.934792
1772,6.58E-02,0.9341738
1773,6.63E-02,0.9336349
1774,6.68E-02,0.9331785
1775,6.71E-02,0.9328074
1776,6.74E-02,0.9325238
1777,6.76E-02,0.9323294
1778,6.77E-02,0.9322246
1779,6.77E-02,0.9322098
1780,6.77E-02,0.9322845
1781,6.75E-02,0.9324455
1782,6.72E-02,0.9326927
1783,6.69E-02,0.9330239
1784,6.65E-02,0.9334363
1785,6.60E-02,0.9339263
1786,0.0654487,0.9344899
1787,0.0648158,0.9351228
1788,0.0641186,0.93582
1789,6.34E-02,0.9365762
1790,6.26E-02,0.9373854
1791,6.17E-02,0.9382417
1792,6.08E-02,0.9391386
1793,5.99E-02,0.9400694
1794,5.89E-02,0.9410272
1795,5.79E-02,0.9420049
1796,5.69E-02,0.9429954
1797,5.59E-02,0.9439914
1798,5.50E-02,0.9449856
1799,0.0539674,0.9459711
1800,5.30E-02,0.9469405
1801,5.21E-02,0.9478873
1802,5.11E-02,0.9488047
1803,5.03E-02,0.9496863
1804,4.94E-02,0.9505262
1805,4.86E-02,0.9513189
1806,4.79E-02,0.9520591
1807,4.72E-02,0.9527423
1808,4.66E-02,0.9533643
1809,4.60E-02,0.9539217
1810,4.55E-02,0.9544114
1811,4.51E-02,0.9548311
1812,0.0447593,0.9551791
1813,0.0444841,0.9554543
1814,4.43E-02,0.9556568
1815,4.42E-02,0.9557863
1816,4.41E-02,0.9558434
1817,4.41E-02,0.9558298
1818,4.42E-02,0.9557472
1819,4.43E-02,0.9555982
1820,4.46E-02,0.9553859
1821,4.48E-02,0.9551134
1822,4.52E-02,0.9547847
1823,4.55E-02,0.9544042
1824,4.60E-02,0.9539765
1825,0.0464326,0.9535066
1826,4.69E-02,0.9529996
1827,4.75E-02,0.952461
1828,4.80E-02,0.9518962
1829,4.86E-02,0.9513108
1830,4.92E-02,0.9507104
1831,4.98E-02,0.9501005
1832,5.05E-02,0.9494869
1833,5.11E-02,0.9488748
1834,5.17E-02,0.9482695
1835,5.23E-02,0.9476763
1836,5.28E-02,0.9470999
1837,5.34E-02,0.9465452
1838,5.39E-02,0.9460164
1839,5.44E-02,0.9455175
1840,0.0548878,0.9450526
1841,5.53E-02,0.9446256
1842,5.57E-02,0.9442387
1843,5.60E-02,0.9438947
1844,5.63E-02,0.9435959
1845,5.66E-02,0.9433441
1846,5.68E-02,0.943141
1847,5.70E-02,0.9429878
1848,5.71E-02,0.9428851
1849,0.0571075,0.9428334
1850,5.71E-02,0.9428325
1851,5.71E-02,0.942882
1852,5.70E-02,0.9429811
1853,5.68E-02,0.9431286
1854,0.0566179,0.943323
1855,5.64E-02,0.9435624
1856,5.61E-02,0.9438447
1857,5.58E-02,0.9441671
1858,5.54E-02,0.9445269
1859,5.50E-02,0.944921
1860,5.46E-02,0.945346
1861,5.41E-02,0.9457984
1862,0.0536667,0.9462742
1863,5.32E-02,0.9467697
1864,5.27E-02,0.9472808
1865,5.21E-02,0.9478031
1866,5.16E-02,0.9483324
1867,5.11E-02,0.9488645
1868,5.05E-02,0.949395
1869,5.00E-02,0.9499196
1870,0.0495069,0.950434
1871,4.90E-02,0.9509341
1872,4.85E-02,0.9514158
1873,4.81E-02,0.9518753
1874,4.76E-02,0.9523088
1875,4.72E-02,0.952713
1876,4.69E-02,0.9530846
1877,4.65E-02,0.9534208
1878,4.62E-02,0.9537186
1879,4.60E-02,0.9539758
1880,0.0457504,0.9541905
1881,4.56E-02,0.9543609
1882,4.55E-02,0.9544856
1883,4.54E-02,0.9545639
1884,4.53E-02,0.9545949
1885,4.54E-02,0.9545786
1886,4.54E-02,0.9545151
1887,4.55E-02,0.9544048
1888,4.57E-02,0.9542484
1889,4.59E-02,0.9540473
1890,4.61E-02,0.9538027
1891,4.64E-02,0.9535165
1892,4.68E-02,0.9531907
1893,4.71E-02,0.9528276
1894,0.0475119,0.9524297
1895,4.79E-02,0.9519997
1896,4.84E-02,0.9515406
1897,4.89E-02,0.9510556
1898,4.94E-02,0.9505476
1899,4.99E-02,0.9500202
1900,5.05E-02,0.9494767
1901,5.10E-02,0.9489195
1902,5.16E-02,0.9483531
1903,5.22E-02,0.9477812
1904,5.27E-02,0.9472072
1905,5.33E-02,0.9466347
1906,5.39E-02,0.9460671
1907,5.44E-02,0.9455078
1908,5.50E-02,0.9449599
1909,5.55E-02,0.9444267
1910,5.60E-02,0.9439111
1911,0.0565269,0.9434161
1912,0.0569987,0.9429444
1913,5.74E-02,0.9424986
1914,5.79E-02,0.9420809
1915,0.0582497,0.9416937
1916,0.0586046,0.9413388
1917,5.89E-02,0.9410182
1918,5.92E-02,0.9407334
1919,5.95E-02,0.9404857
1920,5.97E-02,0.9402764
1921,5.98E-02,0.9401061
1922,6.00E-02,0.9399756
1923,6.01E-02,0.9398853
1924,0.0601084,0.9398355
1925,6.01E-02,0.9398263
1926,6.01E-02,0.9398574
1927,6.00E-02,0.9399286
1928,5.99E-02,0.9400392
1929,5.98E-02,0.9401882
1930,5.96E-02,0.9403749
1931,5.93E-02,0.9405978
1932,5.91E-02,0.9408556
1933,5.88E-02,0.9411467
1934,0.058475,0.9414692
1935,5.81E-02,0.9418213
1936,0.0577434,0.9422009
1937,0.0573387,0.9426056
1938,5.69E-02,0.9430331
1939,5.65E-02,0.9434809
1940,5.60E-02,0.9439464
1941,0.0555173,0.944427
1942,5.50E-02,0.9449198
1943,5.45E-02,0.9454221
1944,5.40E-02,0.9459308
1945,5.35E-02,0.9464434
1946,5.30E-02,0.9469568
1947,5.25E-02,0.947468
1948,5.20E-02,0.9479744
1949,5.15E-02,0.9484732
1950,5.10E-02,0.9489616
1951,5.05E-02,0.9494368
1952,5.00E-02,0.9498966
1953,4.96E-02,0.9503385
1954,4.92E-02,0.95076
1955,4.88E-02,0.9511592
1956,0.0484103,0.951534
1957,4.81E-02,0.9518827
1958,4.77E-02,0.9522037
1959,4.74E-02,0.9524954
1960,4.72E-02,0.9527567
1961,0.0469573,0.9529871
1962,4.68E-02,0.9531852
1963,4.66E-02,0.9533502
1964,4.65E-02,0.9534819
1965,4.64E-02,0.95358
1966,4.63E-02,0.9536445
1967,4.63E-02,0.9536758
1968,4.63E-02,0.9536743
1969,4.63E-02,0.9536406
1970,4.64E-02,0.9535756
1971,4.65E-02,0.9534817
1972,0.0465861,0.9533587
1973,4.67E-02,0.9532079
1974,4.69E-02,0.9530306
1975,4.71E-02,0.9528285
1976,4.73E-02,0.9526035
1977,4.76E-02,0.9523572
1978,4.79E-02,0.9520916
1979,4.81E-02,0.9518087
1980,4.84E-02,0.9515107
1981,4.87E-02,0.9512
1982,4.91E-02,0.9508785
1983,4.94E-02,0.9505482
1984,4.97E-02,0.9502113
1985,5.01E-02,0.9498699
1986,5.04E-02,0.9495263
1987,5.08E-02,0.9491826
1988,0.0511048,0.9488408
1989,5.14E-02,0.948503
1990,5.18E-02,0.9481712
1991,5.21E-02,0.9478472
1992,5.24E-02,0.947533
1993,5.27E-02,0.9472303
1994,5.30E-02,0.9469408
1995,5.33E-02,0.946666
1996,5.35E-02,0.9464074
1997,5.38E-02,0.9461663
1998,5.40E-02,0.945944
1999,5.42E-02,0.9457417
2000,5.44E-02,0.9455602
2001,5.45E-02,0.9453744
2002,5.47E-02,0.9452127
2003,5.48E-02,0.9450755
2004,5.49E-02,0.9449633
2005,5.49E-02,0.9448766
2006,5.50E-02,0.9448155
2007,5.50E-02,0.94478
2008,5.50E-02,0.9447699
2009,5.49E-02,0.9447851
2010,5.49E-02,0.944825
2011,5.48E-02,0.9448891
2012,0.0546491,0.9449766
2013,5.45E-02,0.9450867
2014,5.44E-02,0.9452184
2015,5.42E-02,0.9453707
2016,5.40E-02,0.9455422
2017,5.38E-02,0.9457316
2018,5.35E-02,0.9459374
2019,5.33E-02,0.9461582
2020,5.30E-02,0.9463921
2021,5.27E-02,0.9466376
2022,5.25E-02,0.9468929
2023,5.22E-02,0.947156
2024,5.19E-02,0.9474252
2025,5.16E-02,0.9476984
2026,5.13E-02,0.9479737
2027,5.10E-02,0.9482493
2028,5.07E-02,0.948523
2029,5.04E-02,0.9487931
2030,5.01E-02,0.9490575
2031,4.98E-02,0.9493145
2032,4.95E-02,0.9495622
2033,4.93E-02,0.9497988
2034,4.90E-02,0.9500228
2035,4.88E-02,0.9502325
2036,4.86E-02,0.9504264
2037,0.048357,0.9506032
2038,4.82E-02,0.9507617
2039,4.80E-02,0.9509006
2040,4.79E-02,0.951019
2041,4.77E-02,0.9511161
2042,4.76E-02,0.9511911
2043,4.76E-02,0.9512435
2044,4.75E-02,0.9512727
2045,4.75E-02,0.9512786
2046,4.75E-02,0.951261
2047,4.75E-02,0.9512199
2048,4.75E-02,0.9511555
2049,4.76E-02,0.9510681
2050,0.0476644,0.9509582
2051,4.78E-02,0.9508262
2052,4.79E-02,0.950673
2053,0.0480472,0.9504994
2054,4.82E-02,0.9503062
2055,4.84E-02,0.9500945
2056,4.86E-02,0.9498655
2057,4.88E-02,0.9496204
2058,4.91E-02,0.9493604
2059,4.93E-02,0.9490857
2060,4.96E-02,0.948799
2061,4.98E-02,0.9485018
2062,5.01E-02,0.9481955
2063,5.04E-02,0.9478818
2064,5.07E-02,0.947562
2065,5.10E-02,0.9472379
2066,0.0513153,0.946911
2067,5.16E-02,0.9465828
2068,5.19E-02,0.9462548
2069,5.22E-02,0.9459287
2070,5.25E-02,0.9456058
2071,5.28E-02,0.9452877
2072,5.31E-02,0.9449757
2073,5.34E-02,0.9446713
2074,5.37E-02,0.9443756
2075,5.39E-02,0.94409
2076,5.42E-02,0.9438157
2077,5.44E-02,0.9435537
2078,5.46E-02,0.9433053
2079,5.48E-02,0.9430711
2080,5.50E-02,0.9428523
2081,5.52E-02,0.9426497
2082,5.54E-02,0.9424639
2083,5.55E-02,0.9422957
2084,0.0556513,0.9421457
2085,0.0557589,0.9420143
2086,5.58E-02,0.9419019
2087,5.59E-02,0.9418089
2088,5.60E-02,0.9417355
2089,5.60E-02,0.9416819
2090,5.60E-02,0.9416482
2091,5.60E-02,0.9416343
2092,5.60E-02,0.9416401
2093,5.59E-02,0.9416655
2094,5.58E-02,0.9417102
2095,5.58E-02,0.9417737
2096,5.57E-02,0.9418558
2097,5.55E-02,0.9419558
2098,5.54E-02,0.9420732
2099,5.52E-02,0.9422072
2100,5.51E-02,0.9423572
2101,5.49E-02,0.9425224
2102,5.47E-02,0.9427018
2103,0.054443,0.9428945
2104,5.42E-02,0.9430994
2105,5.40E-02,0.9433156
2106,5.37E-02,0.9435418
2107,5.35E-02,0.943777
2108,5.32E-02,0.9440198
2109,5.29E-02,0.9442691
2110,5.26E-02,0.9445235
2111,5.24E-02,0.9447817
2112,5.21E-02,0.9450425
2113,5.18E-02,0.9453043
2114,0.0514988,0.945566
2115,5.12E-02,0.9458261
2116,5.09E-02,0.9460832
2117,5.07E-02,0.9463362
2118,5.04E-02,0.9465834
2119,5.01E-02,0.9468239
2120,4.99E-02,0.9470562
2121,4.96E-02,0.9472791
2122,4.94E-02,0.9474915
2123,4.91E-02,0.9476923
2124,4.89E-02,0.9478804
2125,4.87E-02,0.9480549
2126,4.86E-02,0.9482148
2127,4.84E-02,0.9483593
2128,0.0482325,0.9484876
2129,4.81E-02,0.9485991
2130,4.80E-02,0.9486932
2131,4.79E-02,0.9487695
2132,0.0477966,0.9488275
2133,4.77E-02,0.948867
2134,4.77E-02,0.9488878
2135,4.77E-02,0.9488897
2136,4.77E-02,0.9488729
2137,4.77E-02,0.9488375
2138,4.77E-02,0.9487836
2139,0.0477487,0.9487115
2140,4.78E-02,0.9486217
2141,4.79E-02,0.9485146
2142,4.80E-02,0.9483908
2143,4.81E-02,0.948251
2144,4.83E-02,0.9480959
2145,4.84E-02,0.9479262
2146,4.86E-02,0.9477429
2147,4.87E-02,0.9475468
2148,4.89E-02,0.947339
2149,4.91E-02,0.9471205
2150,4.93E-02,0.9468922
2151,4.95E-02,0.9466554
2152,4.98E-02,0.9464111
2153,0.0499882,0.9461605
2154,5.02E-02,0.9459056
2155,5.05E-02,0.9456466
2156,5.07E-02,0.9453848
2157,5.09E-02,0.9451213
2158,5.12E-02,0.9448574
2159,5.14E-02,0.944594
2160,5.17E-02,0.9443324
2161,5.19E-02,0.9440737
2162,5.21E-02,0.9438189
2163,5.24E-02,0.943569
2164,5.26E-02,0.9433252
2165,0.0528045,0.9430883
2166,5.30E-02,0.9428593
2167,5.32E-02,0.9426391
2168,5.34E-02,0.9424284
2169,5.36E-02,0.9422281
2170,5.37E-02,0.9420389
2171,5.39E-02,0.9418615
2172,5.40E-02,0.9416965
2173,5.42E-02,0.9415444
2174,5.43E-02,0.9414058
2175,5.44E-02,0.9412811
2176,5.45E-02,0.9411707
2177,5.46E-02,0.9410749
2178,5.46E-02,0.940994
2179,5.47E-02,0.9409282
2180,5.47E-02,0.9408777
2181,5.47E-02,0.9408425
2182,5.47E-02,0.9408227
2183,5.47E-02,0.9408183
2184,5.47E-02,0.9408292
2185,5.46E-02,0.9408552
2186,5.45E-02,0.9408962
2187,5.45E-02,0.9409519
2188,0.0543726,0.9410221
2189,5.43E-02,0.9411064
2190,5.41E-02,0.9412043
2191,5.40E-02,0.9413155
2192,5.39E-02,0.9414394
2193,0.0537062,0.9415756
2194,5.35E-02,0.9417235
2195,5.34E-02,0.9418824
2196,5.32E-02,0.9420517
2197,5.30E-02,0.9422307
2198,5.27E-02,0.9424187
2199,5.25E-02,0.9426149
2200,0.0523028,0.9428185
2201,5.21E-02,0.9430287
2202,5.18E-02,0.9432448
2203,5.16E-02,0.9434658
2204,5.13E-02,0.943691
2205,5.11E-02,0.9439192
2206,5.08E-02,0.9441499
2207,5.06E-02,0.9443818
2208,5.03E-02,0.9446144
2209,5.01E-02,0.9448466
2210,4.98E-02,0.9450775
2211,4.96E-02,0.9453062
2212,4.93E-02,0.9455319
2213,4.91E-02,0.9457538
2214,4.88E-02,0.945971
2215,0.0485911,0.9461825
2216,4.84E-02,0.9463879
2217,0.0481415,0.9465863
2218,4.79E-02,0.9467768
2219,4.77E-02,0.9469589
2220,0.0475273,0.947132
2221,4.73E-02,0.9472954
2222,4.72E-02,0.9474487
2223,4.70E-02,0.9475912
2224,4.68E-02,0.9477227
2225,4.67E-02,0.9478426
2226,4.66E-02,0.9479507
2227,4.65E-02,0.9480467
2228,4.64E-02,0.9481303
2229,4.63E-02,0.9482015
2230,0.0461767,0.9482601
2231,4.61E-02,0.948306
2232,4.61E-02,0.9483394
2233,4.60E-02,0.9483602
2234,4.60E-02,0.9483686
2235,4.60E-02,0.9483649
2236,4.60E-02,0.9483491
2237,4.60E-02,0.9483216
2238,4.60E-02,0.9482828
2239,4.60E-02,0.9482331
2240,4.61E-02,0.9481728
2241,4.61E-02,0.9481025
2242,4.62E-02,0.9480225
2243,0.0462288,0.9479337
2244,4.63E-02,0.9478363
2245,4.64E-02,0.9477311
2246,4.65E-02,0.9476187
2247,4.66E-02,0.9474997
2248,4.67E-02,0.9473748
2249,4.68E-02,0.9472446
2250,0.0469106,0.9471098
2251,4.70E-02,0.9469711
2252,4.72E-02,0.9468292
2253,4.73E-02,0.9466847
2254,4.74E-02,0.9465383
2255,4.75E-02,0.9463907
2256,0.0476576,0.9462425
2257,4.78E-02,0.9460944
2258,4.79E-02,0.9459469
2259,4.80E-02,0.9458007
2260,4.82E-02,0.9456562
2261,4.83E-02,0.9455141
2262,4.84E-02,0.9453749
2263,4.85E-02,0.945239
2264,4.86E-02,0.945107
2265,4.87E-02,0.9449791
2266,4.88E-02,0.9448559
2267,4.89E-02,0.9447376
2268,4.90E-02,0.9446246
2269,4.91E-02,0.9445172
2270,4.92E-02,0.9444156
2271,4.93E-02,0.94432
2272,4.93E-02,0.9442305
2273,4.94E-02,0.9441474
2274,4.95E-02,0.9440708
2275,4.95E-02,0.9440005
2276,4.96E-02,0.9439368
2277,4.96E-02,0.9438797
2278,4.96E-02,0.9438289
2279,4.96E-02,0.9437845
2280,4.97E-02,0.9437465
2281,4.97E-02,0.9437146
2282,4.97E-02,0.9436886
2283,4.97E-02,0.9436685
2284,4.97E-02,0.9436538
2285,4.97E-02,0.9436445
2286,4.96E-02,0.9436402
2287,4.96E-02,0.9436406
2288,4.96E-02,0.9436454
2289,4.96E-02,0.9436542
2290,4.95E-02,0.9436666
2291,4.95E-02,0.9436824
2292,4.94E-02,0.943701
2293,4.94E-02,0.9437221
2294,4.94E-02,0.9437452
2295,4.93E-02,0.9437699
2296,4.93E-02,0.9437957
2297,4.92E-02,0.9438221
2298,4.92E-02,0.9438488
2299,4.91E-02,0.9438751
2300,4.91E-02,0.9439007
2301,4.90E-02,0.9439251
2302,4.90E-02,0.9439477
2303,4.89E-02,0.9439681
2304,0.0489028,0.9439859
2305,4.89E-02,0.9440005
2306,4.88E-02,0.9440116
2307,4.88E-02,0.9440187
2308,4.88E-02,0.9440213
2309,4.88E-02,0.9440192
2310,4.87E-02,0.9440117
2311,4.87E-02,0.9439988
2312,4.87E-02,0.9439799
2313,0.0487415,0.9439547
2314,4.88E-02,0.943923
2315,4.88E-02,0.9438845
2316,4.88E-02,0.943839
2317,4.88E-02,0.9437861
2318,4.89E-02,0.943726
2319,4.89E-02,0.9436584
2320,4.90E-02,0.943583
2321,4.90E-02,0.9435001
2322,4.91E-02,0.9434094
2323,4.92E-02,0.9433112
2324,4.93E-02,0.9432053
2325,4.94E-02,0.943092
2326,0.0494614,0.9429713
2327,4.96E-02,0.9428436
2328,4.97E-02,0.942709
2329,4.98E-02,0.9425677
2330,4.99E-02,0.9424201
2331,5.01E-02,0.9422665
2332,5.02E-02,0.9421074
2333,5.04E-02,0.941943
2334,5.05E-02,0.941774
2335,5.07E-02,0.9416007
2336,5.08E-02,0.9414238
2337,5.10E-02,0.9412437
2338,5.11E-02,0.941061
2339,5.13E-02,0.9408763
2340,5.15E-02,0.9406902
2341,5.16E-02,0.9405034
2342,5.18E-02,0.9403164
2343,0.0519871,0.9401299
2344,5.22E-02,0.9399447
2345,5.23E-02,0.9397613
2346,5.25E-02,0.9395804
2347,5.26E-02,0.9394028
2348,5.28E-02,0.9392289
2349,5.29E-02,0.9390594
2350,5.31E-02,0.9388951
2351,5.32E-02,0.9387364
2352,0.053371,0.9385841
2353,5.35E-02,0.9384386
2354,5.36E-02,0.9383005
2355,5.37E-02,0.9381703
2356,5.38E-02,0.9380485
2357,5.39E-02,0.9379355
2358,5.40E-02,0.9378318
2359,5.41E-02,0.9377378
2360,5.42E-02,0.9376536
2361,5.42E-02,0.9375797
2362,5.43E-02,0.9375163
2363,5.43E-02,0.9374635
2364,5.43E-02,0.9374216
2365,5.43E-02,0.9373907
2366,5.43E-02,0.9373708
2367,5.43E-02,0.9373619
2368,5.43E-02,0.937364
2369,5.43E-02,0.937377
2370,5.42E-02,0.9374008
2371,5.42E-02,0.9374352
2372,5.41E-02,0.9374799
2373,5.40E-02,0.9375348
2374,5.39E-02,0.9375995
2375,5.38E-02,0.9376736
2376,5.37E-02,0.9377568
2377,5.36E-02,0.9378485
2378,5.35E-02,0.9379485
2379,5.34E-02,0.938056
2380,5.32E-02,0.9381706
2381,5.31E-02,0.9382917
2382,5.29E-02,0.9384187
2383,5.28E-02,0.9385509
2384,5.26E-02,0.9386879
2385,5.25E-02,0.9388287
2386,5.23E-02,0.9389728
2387,5.21E-02,0.9391193
2388,5.19E-02,0.9392678
2389,0.0517726,0.9394172
2390,5.16E-02,0.9395671
2391,5.14E-02,0.9397166
2392,5.13E-02,0.9398649
2393,5.11E-02,0.9400113
2394,5.09E-02,0.9401552
2395,5.08E-02,0.9402958
2396,0.0505913,0.9404323
2397,5.04E-02,0.9405642
2398,5.03E-02,0.9406906
2399,5.01E-02,0.9408111
2400,0.0500026,0.9409249
2401,4.99E-02,0.9410316
2402,4.97E-02,0.9411305
2403,4.96E-02,0.9412211
2404,4.95E-02,0.9413029
2405,4.94E-02,0.9413755
2406,4.93E-02,0.9414386
2407,4.93E-02,0.9414917
2408,4.92E-02,0.9415345
2409,4.91E-02,0.9415669
2410,4.91E-02,0.9415887
2411,4.91E-02,0.9415997
2412,4.90E-02,0.9415997
2413,4.90E-02,0.941589
2414,4.90E-02,0.9415674
2415,4.90E-02,0.9415351
2416,0.0490553,0.9414923
2417,4.91E-02,0.9414392
2418,4.91E-02,0.9413761
2419,4.92E-02,0.9413035
2420,0.0492333,0.9412217
2421,4.93E-02,0.9411313
2422,4.94E-02,0.9410329
2423,4.95E-02,0.940927
2424,4.95E-02,0.9408144
2425,4.96E-02,0.940696
2426,4.97E-02,0.9405724
2427,4.98E-02,0.9404446
2428,5.00E-02,0.9403136
2429,5.01E-02,0.9401802
2430,0.0501794,0.9400457
2431,5.03E-02,0.9399109
2432,5.04E-02,0.9397771
2433,5.05E-02,0.9396454
2434,5.06E-02,0.9395171
2435,5.07E-02,0.9393932
2436,5.08E-02,0.939275
2437,5.09E-02,0.9391637
2438,5.10E-02,0.9390614
2439,5.10E-02,0.9389684
2440,5.11E-02,0.938886
2441,0.0511419,0.9388155
2442,5.12E-02,0.9387578
2443,5.12E-02,0.9387142
2444,5.12E-02,0.9386857
2445,5.12E-02,0.9386733
2446,5.11E-02,0.938678
2447,5.11E-02,0.9387005
2448,5.10E-02,0.9387416
2449,5.09E-02,0.9388021
2450,5.08E-02,0.9388825
2451,5.07E-02,0.9389831
2452,5.05E-02,0.9391042
2453,5.04E-02,0.9392461
2454,5.02E-02,0.9394085
2455,4.99E-02,0.9395915
2456,4.97E-02,0.9397944
2457,4.94E-02,0.9400169
2458,4.92E-02,0.940258
2459,0.0488642,0.9405167
2460,4.85E-02,0.9407917
2461,0.0482169,0.9410817
2462,4.79E-02,0.9413847
2463,4.75E-02,0.9416987
2464,4.71E-02,0.9420213
2465,4.68E-02,0.94235
2466,4.64E-02,0.9426817
2467,0.0460104,0.9430131
2468,4.56E-02,0.9433407
2469,4.53E-02,0.9436604
2470,4.49E-02,0.9439679
2471,4.46E-02,0.9442585
2472,4.42E-02,0.9445271
2473,4.39E-02,0.9447682
2474,0.0436709,0.944976
2475,4.34E-02,0.9451443
2476,0.0432624,0.9452664
2477,4.31E-02,0.9453351
2478,4.31E-02,0.9453431
2479,4.31E-02,0.9452826
2480,4.31E-02,0.9451452
2481,4.33E-02,0.9449224
2482,4.35E-02,0.9446051
2483,4.39E-02,0.9441841
2484,4.44E-02,0.9436494
2485,4.50E-02,0.9429913
2486,4.57E-02,0.9421993
2487,4.66E-02,0.9412628
2488,0.0475806,0.9401711
2489,4.88E-02,0.9389132
2490,5.01E-02,0.9374779
2491,0.0516988,0.9358539
2492,5.35E-02,0.9340301
2493,5.54E-02,0.931995
2494,5.76E-02,0.9297376
2495,0.0600514,0.9272469
2496,0.062726,0.924512
2497,6.57E-02,0.9215226
2498,6.89E-02,0.9182684
2499,7.23E-02,0.9147398
2500,7.61E-02,0.9109281
