Preliminary design data,,
1901,,
Wavelength (nm),%R,%T
600,0.9642592,3.57E-02
601,0.9713455,2.86E-02
602,0.9719337,0.0280098
603,0.9661386,3.38E-02
604,0.9471447,5.28E-02
605,0.8451169,0.1546119
606,0.7477335,0.2519744
607,0.7143296,0.2854128
608,0.8419781,0.1578838
609,0.8930809,0.1068151
610,0.8976139,0.1022617
611,0.8623189,0.1374329
612,0.7601418,0.2391106
613,0.745384,0.2542067
614,0.8675792,0.1322288
615,0.9290214,7.09E-02
616,0.9507262,4.92E-02
617,0.9565566,4.34E-02
618,0.9532323,4.67E-02
619,0.9424926,5.75E-02
620,0.9308241,6.91E-02
621,0.9315783,6.84E-02
622,0.9466072,0.0533205
623,0.959987,3.99E-02
624,0.9654644,3.44E-02
625,0.9653726,3.44E-02
626,0.9616355,3.80E-02
627,0.9599853,3.97E-02
628,0.9623551,3.74E-02
629,0.966271,3.36E-02
630,0.9696808,3.02E-02
631,0.9720929,2.78E-02
632,0.9759129,2.40E-02
633,0.9830791,1.69E-02
634,0.9901024,9.86E-03
635,0.9943719,5.59E-03
636,0.9965584,3.41E-03
637,0.9976638,2.31E-03
638,0.998234,1.74E-03
639,0.9985201,1.45E-03
640,0.9986314,1.34E-03
641,0.998607,1.36E-03
642,0.9984389,1.53E-03
643,0.9980641,1.90E-03
644,0.997317,2.65E-03
645,0.9957712,4.19E-03
646,0.9921905,7.77E-03
647,0.9821849,1.78E-02
648,0.9448262,5.51E-02
649,0.762251,0.2376137
650,0.6384705,0.3613912
651,0.7816572,0.2182452
652,0.7025544,0.297289
653,0.7479923,0.2518995
654,0.6560168,0.3438529
655,0.5086352,0.4911958
656,0.5255976,0.4742243
657,0.6782119,0.3216157
658,0.7322146,0.2675717
659,0.7430369,0.256678
660,0.7632905,0.2363539
661,0.8297558,0.1698812
662,0.8995989,0.1000812
663,0.9418761,5.78E-02
664,0.9642123,0.0355406
665,0.976283,2.35E-02
666,0.9830624,1.68E-02
667,0.9869421,1.29E-02
668,0.9891405,0.0107371
669,0.9902723,9.62E-03
670,0.9906126,9.30E-03
671,0.9902129,9.71E-03
672,0.9889147,1.10E-02
673,0.9862446,1.37E-02
674,0.9810814,1.89E-02
675,0.9707148,2.92E-02
676,0.9480692,5.19E-02
677,0.8936238,0.1062911
678,0.7627206,0.237155
679,0.5589913,0.440831
680,0.4446473,0.5550945
681,0.2439438,0.7555147
682,0.6290624,0.3707931
683,0.7762204,0.2236925
684,0.8653598,0.1345805
685,0.9113511,8.86E-02
686,0.9324358,6.75E-02
687,0.9389107,6.11E-02
688,0.9331793,6.68E-02
689,0.9104705,8.95E-02
690,0.8666152,0.133342
691,0.8835934,0.1163634
692,0.9495236,5.04E-02
693,0.9768158,2.32E-02
694,0.9872739,0.0127032
695,0.9917943,8.18E-03
696,0.99395,6.03E-03
697,0.9949925,4.98E-03
698,0.9953954,4.58E-03
699,0.9953151,4.65E-03
700,0.9947188,5.24E-03
701,0.9933698,6.57E-03
702,0.9906327,9.28E-03
703,0.9850284,1.48E-02
704,0.9740365,2.57E-02
705,0.9590628,4.02E-02
706,0.9641389,3.54E-02
707,0.9762186,2.36E-02
708,0.9830459,1.68E-02
709,0.9862592,1.37E-02
710,0.9873253,1.26E-02
711,0.9867954,1.32E-02
712,0.9845217,1.54E-02
713,0.9795374,2.04E-02
714,0.9692228,3.07E-02
715,0.946654,5.33E-02
716,0.8933205,0.1066242
717,0.7743648,0.2255479
718,0.6306403,0.3692166
719,0.3612979,0.6375429
720,0.6208743,0.3789737
721,0.6158885,0.3840142
722,0.5630645,0.4368314
723,0.5927253,0.407171
724,0.7348095,0.2651144
725,0.8492574,0.1506932
726,0.9084896,9.15E-02
727,0.9368999,6.31E-02
728,0.9509357,4.90E-02
729,0.9577689,4.22E-02
730,0.9605623,3.94E-02
731,0.9609939,3.90E-02
732,0.9604583,0.0395251
733,0.9605986,3.94E-02
734,0.9628577,3.71E-02
735,0.9674069,3.26E-02
736,0.9732682,2.67E-02
737,0.9789811,2.10E-02
738,0.983473,1.65E-02
739,0.9866489,0.0133362
740,0.9888042,1.12E-02
741,0.9902189,9.76E-03
742,0.9910859,8.90E-03
743,0.9915101,8.47E-03
744,0.9915263,8.45E-03
745,0.9910992,8.87E-03
746,0.9900993,9.87E-03
747,0.9882349,1.17E-02
748,0.9848747,1.51E-02
749,0.9785699,2.13E-02
750,0.965517,3.43E-02
751,0.9320419,6.74E-02
752,0.8933015,0.1060391
753,0.891761,0.1079094
754,0.9246863,7.51E-02
755,0.9516196,4.83E-02
756,0.9655738,0.0343576
757,0.9722095,2.77E-02
758,0.974749,2.52E-02
759,0.9743614,2.56E-02
760,0.9709467,2.90E-02
761,0.9630914,0.0368823
762,0.9469453,0.0530271
763,0.9137372,0.0862304
764,0.8529962,0.1469617
765,0.8052797,0.1946705
766,0.8365525,0.1633993
767,0.8510757,0.1488606
768,0.7218239,0.2780437
769,0.811694,0.1882319
770,0.7665985,0.2332705
771,0.5824972,0.4170752
772,0.8744881,0.1254154
773,0.8376724,0.1622299
774,0.6924588,0.3073674
775,0.5593505,0.4403999
776,0.7537321,0.2461257
777,0.8823674,0.1175628
778,0.9318994,6.81E-02
779,0.9527726,4.72E-02
780,0.9621029,3.79E-02
781,0.9655325,3.44E-02
782,0.964786,3.52E-02
783,0.9594955,4.05E-02
784,0.9469213,5.31E-02
785,0.9193992,8.06E-02
786,0.8610299,0.1389344
787,0.7937246,0.2062252
788,0.8343548,0.1655974
789,0.8887163,0.1112396
790,0.9506494,4.93E-02
791,0.9699189,3.01E-02
792,0.9787519,2.12E-02
793,0.983368,1.66E-02
794,0.9858668,1.41E-02
795,0.9870831,1.29E-02
796,0.9872597,1.27E-02
797,0.9859215,1.41E-02
798,0.9783026,2.17E-02
799,0.8725728,0.1273002
800,0.9792315,2.07E-02
801,0.9830306,1.70E-02
802,0.9806871,1.93E-02
803,0.9751623,2.48E-02
804,0.9642089,3.58E-02
805,0.939773,6.02E-02
806,0.8713563,0.1285872
807,0.6620023,0.3378615
808,0.7235045,0.2763771
809,0.9092259,9.07E-02
810,0.9616807,3.83E-02
811,0.9797499,2.02E-02
812,0.9876545,1.23E-02
813,0.9917229,8.26E-03
814,0.9940704,5.91E-03
815,0.9955467,4.44E-03
816,0.9965407,3.44E-03
817,0.9972477,2.73E-03
818,0.997773,2.21E-03
819,0.9981756,1.81E-03
820,0.9984902,1.49E-03
821,0.9987381,1.24E-03
822,0.9989339,1.04E-03
823,0.9990878,8.90E-04
824,0.9992077,7.69E-04
825,0.9993001,6.76E-04
826,0.9993699,6.05E-04
827,0.9994207,5.53E-04
828,0.9994556,5.17E-04
829,0.9994762,4.95E-04
830,0.9994836,4.86E-04
831,0.9994776,4.90E-04
832,0.9994568,5.09E-04
833,0.9994186,5.46E-04
834,0.9993574,6.05E-04
835,0.9992638,6.96E-04
836,0.9991213,8.36E-04
837,0.9988984,1.06E-03
838,0.9985324,1.42E-03
839,0.9978839,2.07E-03
840,0.9965975,3.35E-03
841,0.9935963,6.35E-03
842,0.9848734,1.51E-02
843,0.9635187,3.64E-02
844,0.9748478,2.51E-02
845,0.9898862,1.00E-02
846,0.9948822,5.04E-03
847,0.9964588,3.46E-03
848,0.9968777,3.04E-03
849,0.9983083,1.61E-03
850,0.9987047,1.21E-03
851,0.9989299,9.80E-04
852,0.9990752,8.33E-04
853,0.9991733,7.33E-04
854,0.9992403,6.66E-04
855,0.999285,6.21E-04
856,0.999312,5.96E-04
857,0.9993236,5.86E-04
858,0.9993201,5.92E-04
859,0.9993001,6.15E-04
860,0.9992595,6.58E-04
861,0.9991915,7.30E-04
862,0.9990835,8.41E-04
863,0.9989114,1.02E-03
864,0.9986289,1.30E-03
865,0.9981337,1.80E-03
866,0.9971681,2.77E-03
867,0.9949295,5.01E-03
868,0.9879625,1.20E-02
869,0.9560919,4.38E-02
870,0.958204,4.17E-02
871,0.9886056,0.0113425
872,0.9940253,5.93E-03
873,0.9968766,3.08E-03
874,0.998268,1.69E-03
875,0.9987891,1.17E-03
876,0.9990734,8.86E-04
877,0.9992459,7.14E-04
878,0.9993563,6.05E-04
879,0.9994286,5.33E-04
880,0.9994755,4.87E-04
881,0.9995044,4.58E-04
882,0.9995191,4.44E-04
883,0.9995218,4.42E-04
884,0.9995134,4.50E-04
885,0.9994938,4.70E-04
886,0.9994617,5.02E-04
887,0.999415,5.48E-04
888,0.9993502,6.12E-04
889,0.9992618,7.00E-04
890,0.9991416,8.20E-04
891,0.9989771,9.84E-04
892,0.9987491,1.21E-03
893,0.9984271,1.53E-03
894,0.9979611,2.00E-03
895,0.9972662,2.69E-03
896,0.9961911,3.76E-03
897,0.9944507,5.50E-03
898,0.9914685,8.48E-03
899,0.985971,1.40E-02
900,0.9748086,2.51E-02
901,0.9490353,5.09E-02
902,0.8789275,0.120954
903,0.6794269,0.3203705
904,0.5192709,0.4804927
905,0.7093857,0.2904731
906,0.8311769,0.1687283
907,0.8842275,0.1156945
908,0.9093099,9.06E-02
909,0.9218609,7.81E-02
910,0.9278173,7.21E-02
911,0.929717,7.02E-02
912,0.9287269,7.12E-02
913,0.9253902,7.45E-02
914,0.9199329,8.00E-02
915,0.9123875,8.75E-02
916,0.9025837,9.73E-02
917,0.8898427,0.1100662
918,0.8712382,0.128662
919,0.8281292,0.1717453
920,0.6459947,0.35375
921,0.7538381,0.246021
922,0.7895423,0.2103451
923,0.7870635,0.2128283
924,0.7764947,0.2233974
925,0.7634802,0.2364113
926,0.7496634,0.2502275
927,0.7356521,0.2642383
928,0.7216756,0.2782145
929,0.7077838,0.2921062
930,0.6939255,0.3059646
931,0.6799915,0.3198987
932,0.6658467,0.3340437
933,0.6513582,0.3485323
934,0.6364199,0.3634705
935,0.6209702,0.37892
936,0.6049982,0.3948915
937,0.5885335,0.4113555
938,0.5716134,0.4282745
939,0.5542261,0.4456602
940,0.5362242,0.46366
941,0.5171988,0.4826826
942,0.4963661,0.5035115
943,0.4723487,0.5275239
944,0.4429901,0.5568756
945,0.4052531,0.5946038
946,0.3555961,0.6442495
947,0.2917063,0.7081264
948,0.2164361,0.7833841
949,0.1416989,0.8581135
950,8.46E-02,0.9151646
951,5.48E-02,0.9450408
952,4.76E-02,0.9522262
953,5.20E-02,0.9477986
954,5.90E-02,0.9408816
955,6.36E-02,0.9362615
956,6.44E-02,0.9354317
957,6.19E-02,0.9379815
958,5.73E-02,0.9425246
959,5.25E-02,0.9473189
960,4.91E-02,0.9507886
961,4.79E-02,0.9519633
962,0.0491512,0.9507101
963,5.22E-02,0.9476354
964,5.61E-02,0.9437757
965,0.059647,0.9402203
966,0.0620444,0.9378246
967,6.28E-02,0.937069
968,6.18E-02,0.9380351
969,5.94E-02,0.9404477
970,5.61E-02,0.9437526
971,5.27E-02,0.9472214
972,0.0497831,0.9500885
973,4.82E-02,0.9517092
974,4.82E-02,0.9517113
975,4.98E-02,0.9500878
976,5.27E-02,0.9471961
977,5.62E-02,0.9436586
978,5.97E-02,0.9402068
979,6.24E-02,0.9375203
980,6.38E-02,0.9361042
981,0.0636593,0.9362193
982,6.20E-02,0.9378598
983,5.91E-02,0.9407724
984,5.54E-02,0.944496
985,5.15E-02,0.9484263
986,4.80E-02,0.9519041
987,4.56E-02,0.9543195
988,4.47E-02,0.955223
989,4.55E-02,0.9544142
990,4.79E-02,0.951986
991,5.16E-02,0.9483055
992,5.59E-02,0.9439396
993,6.03E-02,0.9395473
994,6.41E-02,0.9357669
995,6.68E-02,0.9331239
996,6.79E-02,0.9319699
997,6.74E-02,0.9324501
998,6.54E-02,0.9344965
999,6.20E-02,0.9378405
1000,5.78E-02,0.9420436
1001,5.33E-02,0.9465447
1002,0.049146,0.9507383
1003,4.58E-02,0.9540489
1004,0.0438616,0.9560225
1005,4.35E-02,0.9563997
1006,4.47E-02,0.9551589
1007,4.74E-02,0.9525132
1008,0.0510188,0.9488674
1009,5.51E-02,0.9447437
1010,5.92E-02,0.9406983
1011,6.26E-02,0.9372451
1012,0.065093,0.9347962
1013,0.0662647,0.9336249
1014,6.60E-02,0.9338441
1015,6.45E-02,0.9353999
1016,6.18E-02,0.9380878
1017,5.83E-02,0.9415683
1018,5.45E-02,0.9454061
1019,5.08E-02,0.9491206
1020,0.0476408,0.9522479
1021,4.55E-02,0.9544038
1022,4.45E-02,0.9553429
1023,4.49E-02,0.9549879
1024,4.65E-02,0.9534365
1025,4.90E-02,0.9509374
1026,5.20E-02,0.9478447
1027,5.53E-02,0.9445634
1028,0.0583979,0.9414939
1029,6.09E-02,0.9389864
1030,6.26E-02,0.9373079
1031,6.33E-02,0.9366198
1032,6.29E-02,0.936968
1033,6.16E-02,0.9382817
1034,0.0595097,0.9403833
1035,5.69E-02,0.9430069
1036,5.41E-02,0.9458284
1037,5.14E-02,0.9485039
1038,4.92E-02,0.9507144
1039,4.77E-02,0.9522082
1040,4.71E-02,0.9528356
1041,4.73E-02,0.9525672
1042,4.84E-02,0.9514931
1043,5.01E-02,0.9498023
1044,5.21E-02,0.9477524
1045,5.43E-02,0.945631
1046,0.0561749,0.9437202
1047,5.76E-02,0.9422647
1048,5.84E-02,0.9414485
1049,5.85E-02,0.9413787
1050,5.78E-02,0.9420764
1051,5.64E-02,0.9434752
1052,0.0544692,0.9454265
1053,5.22E-02,0.9477122
1054,4.98E-02,0.9500675
1055,4.77E-02,0.9522086
1056,4.60E-02,0.9538691
1057,4.51E-02,0.9548326
1058,4.49E-02,0.954964
1059,4.57E-02,0.9542271
1060,4.72E-02,0.9526883
1061,4.94E-02,0.9505128
1062,5.20E-02,0.947922
1063,5.47E-02,0.9451795
1064,0.0573411,0.942557
1065,5.96E-02,0.9403078
1066,6.13E-02,0.9386429
1067,6.22E-02,0.9377162
1068,6.23E-02,0.9376118
1069,0.0615604,0.9383386
1070,6.01E-02,0.9398282
1071,5.80E-02,0.9419392
1072,5.54E-02,0.9444664
1073,5.27E-02,0.9471579
1074,5.02E-02,0.9497386
1075,4.80E-02,0.9519386
1076,4.64E-02,0.953524
1077,4.56E-02,0.9543247
1078,4.56E-02,0.9542543
1079,4.66E-02,0.953319
1080,4.83E-02,0.9516137
1081,5.06E-02,0.9493048
1082,0.0532866,0.9466125
1083,5.61E-02,0.9437823
1084,5.88E-02,0.9410623
1085,6.12E-02,0.9386782
1086,6.31E-02,0.9368216
1087,6.43E-02,0.9356357
1088,0.0646947,0.9352069
1089,6.43E-02,0.9355596
1090,6.32E-02,0.9366537
1091,6.15E-02,0.9383861
1092,5.93E-02,0.9405968
1093,5.68E-02,0.9430804
1094,5.43E-02,0.9456032
1095,0.0519748,0.9479257
1096,0.0500727,0.9498277
1097,4.88E-02,0.9511322
1098,4.82E-02,0.9517257
1099,0.0483316,0.9515689
1100,4.92E-02,0.9506979
1101,5.07E-02,0.9492182
1102,5.26E-02,0.9472828
1103,5.48E-02,0.9450765
1104,5.71E-02,0.9427963
1105,5.93E-02,0.9406335
1106,0.0611434,0.9387602
1107,6.26E-02,0.937319
1108,6.35E-02,0.9364153
1109,0.0637923,0.9361122
1110,6.35E-02,0.9364271
1111,6.26E-02,0.93733
1112,6.12E-02,0.9387445
1113,5.94E-02,0.9405513
1114,5.73E-02,0.9425967
1115,5.52E-02,0.9447042
1116,5.32E-02,0.9466909
1117,5.15E-02,0.9483861
1118,0.0502543,0.9496493
1119,0.0495181,0.9503854
1120,4.93E-02,0.9505546
1121,4.97E-02,0.9501718
1122,5.06E-02,0.9493071
1123,5.18E-02,0.9480714
1124,5.33E-02,0.9466018
1125,5.49E-02,0.9450457
1126,5.64E-02,0.943547
1127,5.77E-02,0.9422351
1128,5.87E-02,0.9412163
1129,5.93E-02,0.9405694
1130,5.96E-02,0.9403408
1131,0.0593597,0.9405461
1132,5.87E-02,0.9411666
1133,5.78E-02,0.9421513
1134,5.65E-02,0.943419
1135,5.50E-02,0.9448632
1136,0.0535462,0.9463595
1137,5.21E-02,0.9477761
1138,5.09E-02,0.9489859
1139,5.00E-02,0.9498804
1140,4.95E-02,0.9503815
1141,0.0494552,0.9504507
1142,4.98E-02,0.9500948
1143,5.05E-02,0.9493598
1144,5.16E-02,0.9483266
1145,5.28E-02,0.9471004
1146,5.41E-02,0.9457989
1147,5.54E-02,0.9445401
1148,5.65E-02,0.9434318
1149,5.73E-02,0.9425638
1150,5.79E-02,0.9420031
1151,5.81E-02,0.9417905
1152,5.80E-02,0.9419402
1153,5.75E-02,0.9424393
1154,5.67E-02,0.9432493
1155,5.56E-02,0.9443072
1156,0.0543794,0.9455287
1157,0.0530956,0.9468125
1158,5.19E-02,0.9480461
1159,5.08E-02,0.9491148
1160,5.00E-02,0.9499115
1161,0.0495606,0.9503474
1162,4.95E-02,0.9503629
1163,5.00E-02,0.9499345
1164,5.08E-02,0.9490784
1165,5.21E-02,0.9478497
1166,5.36E-02,0.9463363
1167,5.53E-02,0.9446493
1168,5.70E-02,0.9429113
1169,5.87E-02,0.9412438
1170,6.02E-02,0.9397572
1171,6.14E-02,0.9385426
1172,6.22E-02,0.9376661
1173,6.27E-02,0.9371671
1174,0.0628521,0.937058
1175,6.26E-02,0.9373255
1176,6.20E-02,0.9379338
1177,6.11E-02,0.9388262
1178,0.0599809,0.9399289
1179,5.88E-02,0.9411536
1180,5.75E-02,0.9424018
1181,5.63E-02,0.9435688
1182,5.54E-02,0.9445513
1183,0.054655,0.9452544
1184,5.43E-02,0.9456002
1185,5.44E-02,0.945537
1186,0.0548631,0.9450466
1187,5.58E-02,0.9441482
1188,5.70E-02,0.9428996
1189,5.85E-02,0.9413926
1190,6.02E-02,0.9397454
1191,6.18E-02,0.9380912
1192,6.33E-02,0.936566
1193,6.46E-02,0.9352967
1194,6.55E-02,0.9343901
1195,0.0659866,0.9339256
1196,6.60E-02,0.9339499
1197,6.54E-02,0.9344754
1198,6.44E-02,0.935481
1199,6.30E-02,0.9369144
1200,6.12E-02,0.9386967
1201,5.92E-02,0.9407263
1202,5.70E-02,0.9428872
1203,5.49E-02,0.945053
1204,5.28E-02,0.9470943
1205,5.10E-02,0.9488851
1206,4.96E-02,0.9503109
1207,4.86E-02,0.9512761
1208,4.82E-02,0.951712
1209,4.83E-02,0.9515831
1210,4.90E-02,0.9508921
1211,5.02E-02,0.9496819
1212,5.19E-02,0.9480336
1213,5.39E-02,0.9460618
1214,5.60E-02,0.9439051
1215,5.82E-02,0.9417157
1216,6.03E-02,0.9396471
1217,6.21E-02,0.9378422
1218,6.35E-02,0.9364229
1219,6.44E-02,0.935482
1220,6.48E-02,0.9350773
1221,6.47E-02,0.9352292
1222,6.40E-02,0.9359201
1223,6.28E-02,0.9370968
1224,6.12E-02,0.938674
1225,5.94E-02,0.94054
1226,5.74E-02,0.942563
1227,5.53E-02,0.9445988
1228,5.34E-02,0.9464992
1229,5.18E-02,0.948121
1230,0.0505783,0.9493347
1231,0.0498791,0.9500338
1232,4.98E-02,0.9501429
1233,0.0502887,0.9496244
1234,5.14E-02,0.9484829
1235,5.31E-02,0.9467673
1236,5.53E-02,0.9445683
1237,5.79E-02,0.9420133
1238,6.07E-02,0.9392578
1239,0.0634407,0.9364743
1240,6.61E-02,0.9338401
1241,6.84E-02,0.9315256
1242,0.070235,0.929681
1243,7.15E-02,0.9284284
1244,7.21E-02,0.9278533
1245,7.19E-02,0.9279999
1246,7.10E-02,0.9288672
1247,0.0695067,0.9304094
1248,6.74E-02,0.9325368
1249,6.48E-02,0.9351199
1250,6.19E-02,0.937996
1251,5.89E-02,0.9409773
1252,5.61E-02,0.943862
1253,5.35E-02,0.946447
1254,5.14E-02,0.948542
1255,0.0499294,0.9499838
1256,4.93E-02,0.95065
1257,4.94E-02,0.9504701
1258,5.05E-02,0.949433
1259,5.23E-02,0.9475893
1260,5.49E-02,0.9450492
1261,0.0579385,0.941975
1262,6.13E-02,0.9385678
1263,6.49E-02,0.9350542
1264,6.82E-02,0.9316703
1265,7.13E-02,0.9286458
1266,7.37E-02,0.9261895
1267,7.54E-02,0.9244774
1268,7.63E-02,0.9236422
1269,7.61E-02,0.9237657
1270,7.50E-02,0.924873
1271,7.30E-02,0.9269289
1272,0.0700786,0.9298365
1273,6.65E-02,0.9334383
1274,6.24E-02,0.9375205
1275,5.81E-02,0.9418214
1276,5.39E-02,0.9460444
1277,5.00E-02,0.9498764
1278,4.69E-02,0.95301
1279,4.47E-02,0.9551703
1280,4.38E-02,0.9561403
1281,4.41E-02,0.9557849
1282,4.58E-02,0.9540681
1283,4.89E-02,0.9510586
1284,5.30E-02,0.9469276
1285,5.80E-02,0.9419351
1286,6.35E-02,0.936408
1287,6.92E-02,0.9307146
1288,7.47E-02,0.925236
1289,7.96E-02,0.9203405
1290,8.36E-02,0.9163592
1291,8.63E-02,0.9135665
1292,8.78E-02,0.9121621
1293,8.77E-02,0.912257
1294,8.61E-02,0.9138592
1295,8.30E-02,0.9168646
1296,7.89E-02,0.9210492
1297,0.0738382,0.9260705
1298,6.84E-02,0.9314802
1299,6.32E-02,0.9367526
1300,0.058573,0.9413319
1301,5.52E-02,0.9446955
1302,5.35E-02,0.9464267
1303,5.36E-02,0.9462776
1304,5.57E-02,0.9442143
1305,5.95E-02,0.9404301
1306,6.46E-02,0.9353291
1307,7.04E-02,0.9294851
1308,7.63E-02,0.9235896
1309,8.15E-02,0.9183895
1310,0.0852896,0.9146116
1311,8.71E-02,0.9128425
1312,8.66E-02,0.9133161
1313,8.44E-02,0.915536
1314,8.22E-02,0.9176728
1315,8.40E-02,0.9158453
1316,9.60E-02,0.9039162
1317,0.1246905,0.8751803
1318,0.1731009,0.8267695
1319,0.2360614,0.7638133
1320,0.3020878,0.6977943
1321,0.3601865,0.6397043
1322,0.4047422,0.5951566
1323,0.4352901,0.5646151
1324,0.4541614,0.5457484
1325,0.4646686,0.5352441
1326,0.4703597,0.5295546
1327,0.4748867,0.5250281
1328,0.481988,0.5179268
1329,0.4952385,0.5046762
1330,0.5174183,0.4824969
1331,0.5496613,0.4502551
1332,0.5908879,0.4090311
1333,0.6380367,0.361886
1334,0.687105,0.3128222
1335,0.7344024,0.2655298
1336,0.7773651,0.2225723
1337,0.8147238,0.1852186
1338,0.846239,0.1537081
1339,0.8723043,0.1276469
1340,0.8936099,0.1063449
1341,0.9109166,8.90E-02
1342,0.9249541,7.50E-02
1343,0.9363509,6.36E-02
1344,0.9456301,5.43E-02
1345,0.9532156,4.68E-02
1346,0.9594461,4.05E-02
1347,0.9645899,3.54E-02
1348,0.9688588,3.11E-02
1349,0.9724203,0.0275534
1350,0.9754066,2.46E-02
1351,0.9779226,2.21E-02
1352,0.9800519,1.99E-02
1353,0.9818612,1.81E-02
1354,0.9834042,1.66E-02
1355,0.984724,1.53E-02
1356,0.9858557,1.41E-02
1357,0.9868277,1.32E-02
1358,0.9876632,1.23E-02
1359,0.9883813,1.16E-02
1360,0.9889976,1.10E-02
1361,0.9895247,0.0104576
1362,0.9899732,1.00E-02
1363,0.9903517,9.63E-03
1364,0.9906672,9.32E-03
1365,0.9909253,9.06E-03
1366,0.9911305,8.85E-03
1367,0.991286,8.70E-03
1368,0.9913946,8.59E-03
1369,0.9914579,8.53E-03
1370,0.9914766,8.51E-03
1371,0.991451,8.53E-03
1372,0.9913806,8.61E-03
1373,0.9912638,8.72E-03
1374,0.9910986,8.89E-03
1375,0.9908819,9.10E-03
1376,0.9906099,9.38E-03
1377,0.9902778,9.71E-03
1378,0.9898797,1.01E-02
1379,0.9894087,1.06E-02
1380,0.9888564,1.11E-02
1381,0.9882155,1.18E-02
1382,0.9874744,0.0125128
1383,0.9866223,1.34E-02
1384,0.9856482,1.43E-02
1385,0.9845426,0.0154449
1386,0.9832996,1.67E-02
1387,0.9819205,1.81E-02
1388,0.9804204,1.96E-02
1389,0.9788345,2.12E-02
1390,0.9772264,2.28E-02
1391,0.9756901,2.43E-02
1392,0.9743391,2.56E-02
1393,0.9732832,2.67E-02
1394,0.972602,0.0273859
1395,0.9723326,2.77E-02
1396,0.9724733,2.75E-02
1397,0.9729904,2.70E-02
1398,0.9738266,2.62E-02
1399,0.9749077,2.51E-02
1400,0.9761524,2.38E-02
1401,0.977487,2.25E-02
1402,0.9788398,2.11E-02
1403,0.9801582,1.98E-02
1404,0.9814053,0.0185838
1405,0.9825584,1.74E-02
1406,0.9836054,0.0163839
1407,0.9845425,1.54E-02
1408,0.9853708,1.46E-02
1409,0.9860946,1.39E-02
1410,0.98672,1.33E-02
1411,0.9872536,1.27E-02
1412,0.987702,1.23E-02
1413,0.9880713,1.19E-02
1414,0.988367,1.16E-02
1415,0.9885936,0.0113964
1416,0.9887551,1.12E-02
1417,0.9888545,1.11E-02
1418,0.9888941,1.11E-02
1419,0.9888756,1.11E-02
1420,0.9888,1.12E-02
1421,0.9886683,1.13E-02
1422,0.988481,1.15E-02
1423,0.9882389,1.18E-02
1424,0.9879436,1.20E-02
1425,0.9875977,1.24E-02
1426,0.9872054,1.28E-02
1427,0.9867734,1.32E-02
1428,0.9863107,1.37E-02
1429,0.9858284,1.42E-02
1430,0.9853391,1.47E-02
1431,0.9848556,1.51E-02
1432,0.9843901,1.56E-02
1433,0.9839547,0.0160355
1434,0.983562,1.64E-02
1435,0.9832258,1.68E-02
1436,0.9829615,1.70E-02
1437,0.9827849,1.72E-02
1438,0.9827097,1.73E-02
1439,0.9827453,1.72E-02
1440,0.9828951,1.71E-02
1441,0.9831534,0.0168369
1442,0.9835106,1.65E-02
1443,0.9839505,1.60E-02
1444,0.9844536,1.55E-02
1445,0.9849991,1.50E-02
1446,0.9855667,1.44E-02
1447,0.9861383,1.39E-02
1448,0.9866986,1.33E-02
1449,0.9872357,1.28E-02
1450,0.9877404,1.23E-02
1451,0.9882063,1.18E-02
1452,0.9886293,1.14E-02
1453,0.9890069,1.10E-02
1454,0.9893377,1.07E-02
1455,0.9896213,1.04E-02
1456,0.9898578,1.01E-02
1457,0.9900474,9.94E-03
1458,0.9901904,9.80E-03
1459,0.990287,9.70E-03
1460,0.9903375,9.65E-03
1461,0.990342,9.65E-03
1462,0.9903002,9.69E-03
1463,0.9902121,9.78E-03
1464,0.9900784,9.91E-03
1465,0.9899003,1.01E-02
1466,0.989679,1.03E-02
1467,0.9894154,1.06E-02
1468,0.9891077,1.09E-02
1469,0.9887505,1.12E-02
1470,0.9883341,1.17E-02
1471,0.9878463,1.21E-02
1472,0.9872736,1.27E-02
1473,0.9866033,1.34E-02
1474,0.9858242,1.42E-02
1475,0.984927,0.015062
1476,0.983905,1.61E-02
1477,0.9827547,1.72E-02
1478,0.9814788,0.0185098
1479,0.9800878,1.99E-02
1480,0.978605,2.14E-02
1481,0.9770742,2.29E-02
1482,0.9755485,2.44E-02
1483,0.9741049,2.59E-02
1484,0.9728355,2.72E-02
1485,0.9718376,2.81E-02
1486,0.9711975,2.88E-02
1487,0.9709739,0.0290131
1488,0.9711838,2.88E-02
1489,0.9717994,0.0281873
1490,0.9727545,2.72E-02
1491,0.9739603,2.60E-02
1492,0.9753222,2.47E-02
1493,0.9767536,2.32E-02
1494,0.9781841,2.18E-02
1495,0.9795622,2.04E-02
1496,0.9808539,1.91E-02
1497,0.9820395,1.79E-02
1498,0.98311,1.69E-02
1499,0.9840637,1.59E-02
1500,0.9849036,1.51E-02
1501,0.9856386,1.43E-02
1502,0.9862712,0.013712
1503,0.9868082,1.32E-02
1504,0.9872562,1.27E-02
1505,0.9876212,1.24E-02
1506,0.9879082,1.21E-02
1507,0.9881212,0.0118587
1508,0.9882631,1.17E-02
1509,0.9883355,1.16E-02
1510,0.9883392,1.16E-02
1511,0.9882734,1.17E-02
1512,0.9881364,1.18E-02
1513,0.9879248,1.20E-02
1514,0.9876338,1.23E-02
1515,0.987257,1.27E-02
1516,0.9867862,0.013181
1517,0.9862112,1.38E-02
1518,0.9855192,0.0144428
1519,0.9846953,0.0152635
1520,0.9837219,1.62E-02
1521,0.9825789,1.74E-02
1522,0.9812444,1.87E-02
1523,0.9796959,2.02E-02
1524,0.9779129,2.20E-02
1525,0.9758819,2.40E-02
1526,0.9736039,2.63E-02
1527,0.9711066,2.88E-02
1528,0.9684593,3.14E-02
1529,0.9657901,3.41E-02
1530,0.9632961,3.66E-02
1531,0.9612349,3.86E-02
1532,0.9598859,4.00E-02
1533,0.9594784,4.04E-02
1534,0.9601151,3.98E-02
1535,0.9617296,3.81E-02
1536,0.9641084,3.58E-02
1537,0.9669625,3.29E-02
1538,0.9700083,2.99E-02
1539,0.9730214,2.69E-02
1540,0.9758533,2.41E-02
1541,0.978417,2.15E-02
1542,0.9806924,1.92E-02
1543,0.9826822,1.73E-02
1544,0.9844059,1.55E-02
1545,0.9858909,1.41E-02
1546,0.9871666,1.28E-02
1547,0.9882608,1.17E-02
1548,0.9891992,1.08E-02
1549,0.9900038,9.95E-03
1550,0.9906934,9.27E-03
1551,0.9912842,8.68E-03
1552,0.9917892,8.17E-03
1553,0.9922191,7.74E-03
1554,0.9925827,7.38E-03
1555,0.9928868,7.07E-03
1556,0.9931362,6.82E-03
1557,0.9933344,6.63E-03
1558,0.9934825,6.48E-03
1559,0.9935797,6.38E-03
1560,0.9936224,6.33E-03
1561,0.9936025,6.34E-03
1562,0.9935056,6.43E-03
1563,0.9933074,6.62E-03
1564,0.9929658,6.95E-03
1565,0.9924089,7.49E-03
1566,0.991511,8.36E-03
1567,0.9900564,9.78E-03
1568,0.9877079,1.21E-02
1569,0.9841143,0.0155804
1570,0.9795653,0.0200487
1571,0.9760192,2.36E-02
1572,0.9755677,2.41E-02
1573,0.9773949,2.23E-02
1574,0.9795715,2.02E-02
1575,0.9812112,1.86E-02
1576,0.9821973,1.77E-02
1577,0.9826288,0.0172776
1578,0.9826211,1.73E-02
1579,0.9822696,1.77E-02
1580,0.9816661,1.83E-02
1581,0.9809335,1.90E-02
1582,0.9802301,1.97E-02
1583,0.9797397,2.02E-02
1584,0.9795613,2.04E-02
1585,0.9795974,2.04E-02
1586,0.979596,2.04E-02
1587,0.9793226,0.0206488
1588,0.9786679,2.13E-02
1589,0.9776343,2.23E-02
1590,0.9762853,2.37E-02
1591,0.9747131,2.53E-02
1592,0.9730276,2.69E-02
1593,0.9713545,0.0286228
1594,0.9698315,3.01E-02
1595,0.9685966,3.14E-02
1596,0.9677696,3.22E-02
1597,0.9674299,0.032549
1598,0.9676023,3.24E-02
1599,0.9682531,3.17E-02
1600,0.9693024,3.07E-02
1601,0.9706436,2.93E-02
1602,0.9721658,2.78E-02
1603,0.9737688,2.62E-02
1604,0.975373,2.46E-02
1605,0.976921,2.31E-02
1606,0.9783756,2.16E-02
1607,0.9797156,2.03E-02
1608,0.9809318,1.90E-02
1609,0.9820229,1.80E-02
1610,0.9829928,1.70E-02
1611,0.9838477,1.61E-02
1612,0.9845957,1.54E-02
1613,0.9852449,1.47E-02
1614,0.9858032,1.42E-02
1615,0.9862779,1.37E-02
1616,0.9866757,1.33E-02
1617,0.987002,1.30E-02
1618,0.9872615,1.27E-02
1619,0.9874582,1.25E-02
1620,0.9875951,0.0123799
1621,0.9876758,0.0122984
1622,0.9876999,1.23E-02
1623,0.9876677,1.23E-02
1624,0.9875792,1.24E-02
1625,0.9874335,1.25E-02
1626,0.9872286,1.27E-02
1627,0.9869621,1.30E-02
1628,0.9866306,1.33E-02
1629,0.9862297,1.37E-02
1630,0.9857544,1.42E-02
1631,0.9851986,0.0147617
1632,0.9845554,1.54E-02
1633,0.9838172,1.61E-02
1634,0.9829757,1.70E-02
1635,0.9820224,1.79E-02
1636,0.980949,1.90E-02
1637,0.9797482,0.0201938
1638,0.9784153,2.15E-02
1639,0.9769499,2.30E-02
1640,0.9753579,2.46E-02
1641,0.9736589,2.63E-02
1642,0.9718792,2.80E-02
1643,0.9700657,2.98E-02
1644,0.9682843,3.16E-02
1645,0.9666209,3.33E-02
1646,0.9651769,3.47E-02
1647,0.964059,3.58E-02
1648,0.9633641,3.65E-02
1649,0.9631618,3.67E-02
1650,0.9634803,3.64E-02
1651,0.9642985,3.56E-02
1652,0.9655515,3.43E-02
1653,0.9671431,3.28E-02
1654,0.968964,3.09E-02
1655,0.9709083,2.90E-02
1656,0.9728848,2.70E-02
1657,0.9748228,2.51E-02
1658,0.9766723,2.33E-02
1659,0.9784023,2.15E-02
1660,0.9799963,1.99E-02
1661,0.981454,1.85E-02
1662,0.9827706,1.72E-02
1663,0.9839529,0.0159879
1664,0.98501,1.49E-02
1665,0.9859521,1.40E-02
1666,0.9867895,1.32E-02
1667,0.9875324,1.24E-02
1668,0.9881901,1.18E-02
1669,0.9887709,1.12E-02
1670,0.9892827,1.07E-02
1671,0.989732,1.02E-02
1672,0.9901247,9.82E-03
1673,0.9904656,9.48E-03
1674,0.990759,0.0091857
1675,0.9910079,8.93E-03
1676,0.9912151,8.72E-03
1677,0.9913822,8.55E-03
1678,0.9915103,8.42E-03
1679,0.9915993,8.33E-03
1680,0.9916486,8.27E-03
1681,0.9916552,8.25E-03
1682,0.9916172,8.28E-03
1683,0.9915296,8.35E-03
1684,0.9913871,8.48E-03
1685,0.9911847,8.66E-03
1686,0.9909206,8.90E-03
1687,0.990603,9.19E-03
1688,0.9902565,9.51E-03
1689,0.9899262,9.83E-03
1690,0.9896641,0.0100818
1691,0.9894988,1.03E-02
1692,0.9894177,1.04E-02
1693,0.9893755,0.01042
1694,0.9893226,1.05E-02
1695,0.9892252,1.06E-02
1696,0.9890642,1.08E-02
1697,0.9888318,1.10E-02
1698,0.9885249,1.14E-02
1699,0.9881426,1.18E-02
1700,0.9876826,1.22E-02
1701,0.9871415,1.28E-02
1702,0.9865159,1.34E-02
1703,0.9858006,1.41E-02
1704,0.9849893,1.49E-02
1705,0.9840743,1.59E-02
1706,0.9830477,1.69E-02
1707,0.9819011,1.80E-02
1708,0.9806267,1.93E-02
1709,0.9792178,2.07E-02
1710,0.97767,0.0222515
1711,0.9759836,2.39E-02
1712,0.9741652,2.58E-02
1713,0.9722306,2.77E-02
1714,0.9702071,2.97E-02
1715,0.9681376,3.18E-02
1716,0.966081,3.38E-02
1717,0.9641128,3.58E-02
1718,0.9623216,3.76E-02
1719,0.9608023,3.91E-02
1720,0.9596444,4.02E-02
1721,0.9589208,4.10E-02
1722,0.9586712,4.12E-02
1723,0.9589025,4.10E-02
1724,0.9595855,4.03E-02
1725,0.9606594,3.92E-02
1726,0.9620441,3.79E-02
1727,0.9636508,3.63E-02
1728,0.9653938,3.45E-02
1729,0.9671971,3.27E-02
1730,0.9689989,3.09E-02
1731,0.9707523,2.92E-02
1732,0.972424,2.75E-02
1733,0.9739926,2.59E-02
1734,0.975446,0.0244831
1735,0.9767782,2.32E-02
1736,0.9779885,2.19E-02
1737,0.9790786,2.09E-02
1738,0.9800519,1.99E-02
1739,0.9809126,1.90E-02
1740,0.9816641,1.83E-02
1741,0.9823092,1.76E-02
1742,0.9828489,0.0170821
1743,0.983282,1.66E-02
1744,0.9836041,1.63E-02
1745,0.983807,1.61E-02
1746,0.9838769,1.60E-02
1747,0.9837937,0.0161073
1748,0.9835286,1.64E-02
1749,0.9830453,1.68E-02
1750,0.9823036,1.75E-02
1751,0.9812757,1.85E-02
1752,0.9799833,1.98E-02
1753,0.9785674,2.12E-02
1754,0.9773431,2.24E-02
1755,0.9767345,2.30E-02
1756,0.9770077,2.27E-02
1757,0.9780488,2.17E-02
1758,0.979479,2.03E-02
1759,0.9809383,1.89E-02
1760,0.9822251,1.76E-02
1761,0.9832773,1.66E-02
1762,0.9840959,0.0157978
1763,0.9847122,0.0151959
1764,0.9851617,1.48E-02
1765,0.985475,1.45E-02
1766,0.9856764,1.43E-02
1767,0.9857844,1.42E-02
1768,0.9858127,1.41E-02
1769,0.9857713,1.42E-02
1770,0.9856672,1.43E-02
1771,0.9855053,1.45E-02
1772,0.9852888,1.47E-02
1773,0.9850193,1.49E-02
1774,0.9846975,1.53E-02
1775,0.9843231,1.56E-02
1776,0.9838948,1.61E-02
1777,0.9834108,1.66E-02
1778,0.9828683,0.0170981
1779,0.982264,1.77E-02
1780,0.9815938,1.84E-02
1781,0.9808546,1.91E-02
1782,0.9800394,1.99E-02
1783,0.9791417,2.08E-02
1784,0.9781541,2.18E-02
1785,0.9770681,2.29E-02
1786,0.9758742,2.41E-02
1787,0.9745613,2.54E-02
1788,0.9731172,0.0268518
1789,0.9715277,2.84E-02
1790,0.9697769,3.02E-02
1791,0.9678468,3.21E-02
1792,0.9657167,3.43E-02
1793,0.9633636,3.66E-02
1794,0.960761,0.0392063
1795,0.957879,4.21E-02
1796,0.9546837,4.53E-02
1797,0.9511365,0.0488292
1798,0.9471938,5.28E-02
1799,0.9428065,5.72E-02
1800,0.9379187,6.20E-02
1801,0.9324681,6.75E-02
1802,0.9263842,7.36E-02
1803,0.919589,0.0803713
1804,0.911996,8.80E-02
1805,0.9035104,9.64E-02
1806,0.8940299,0.1059266
1807,0.8834457,0.1165093
1808,0.8716452,0.1283082
1809,0.8585157,0.1414359
1810,0.8439505,0.1559992
1811,0.8278565,0.1720912
1812,0.8101656,0.1897801
1813,0.790848,0.2090957
1814,0.769929,0.2300125
1815,0.7475063,0.2524331
1816,0.7237678,0.2761694
1817,0.699006,0.3009292
1818,0.6736239,0.3263094
1819,0.64813,0.3518016
1820,0.6231175,0.3768126
1821,0.5991592,0.4007698
1822,0.5769705,0.4229577
1823,0.5571303,0.4427975
1824,0.5400991,0.4598287
1825,0.5261759,0.4737523
1826,0.5154778,0.4844509
1827,0.5079436,0.491986
1828,0.5033579,0.4965729
1829,0.5013894,0.4985425
1830,0.5016356,0.4982978
1831,0.503663,0.4962716
1832,0.5070426,0.4928932
1833,0.5113739,0.4885633
1834,0.5162996,0.4836386
1835,0.5215135,0.4784257
1836,0.5267603,0.4731796
1837,0.5318335,0.4681071
1838,0.5365692,0.4633721
1839,0.5408398,0.4591017
1840,0.544548,0.4553938
1841,0.5476077,0.4523341
1842,0.5499799,0.4499618
1843,0.5516225,0.448319
1844,0.5525023,0.4474387
1845,0.5525914,0.4473489
1846,0.5518642,0.4480754
1847,0.550294,0.4496446
1848,0.5478509,0.4520866
1849,0.5444991,0.4554371
1850,0.540194,0.4597408
1851,0.5348797,0.4650534
1852,0.5284861,0.471445
1853,0.5209259,0.479003
1854,0.5120916,0.4878349
1855,0.5018526,0.4980713
1856,0.4900536,0.5098673
1857,0.4765141,0.5234036
1858,0.4610315,0.5388826
1859,0.4433893,0.5565209
1860,0.4233719,0.576534
1861,0.4007924,0.5991092
1862,0.37553,0.6243667
1863,0.3475855,0.6523063
1864,0.3171437,0.6827432
1865,0.2846362,0.715246
1866,0.2507838,0.7490942
1867,0.216593,0.7832813
1868,0.1832857,0.8165859
1869,0.1521577,0.8477123
1870,0.124393,0.8754768
1871,0.1008833,0.8989872
1872,8.21E-02,0.9177637
1873,0.0681114,0.9317641
1874,5.86E-02,0.9413226
1875,5.28E-02,0.9470339
1876,5.03E-02,0.9496225
1877,5.01E-02,0.9498338
1878,5.15E-02,0.9483576
1879,0.0541097,0.9457878
1880,5.73E-02,0.9426075
1881,0.0607104,0.9391931
1882,6.41E-02,0.9358231
1883,6.72E-02,0.9326978
1884,0.0699582,0.9299515
1885,7.22E-02,0.9276686
1886,7.40E-02,0.9258927
1887,7.53E-02,0.924636
1888,7.60E-02,0.9238868
1889,7.63E-02,0.9236138
1890,7.61E-02,0.9237711
1891,7.56E-02,0.9243008
1892,7.48E-02,0.9251366
1893,7.37E-02,0.9262063
1894,7.25E-02,0.9274337
1895,7.12E-02,0.9287423
1896,6.99E-02,0.9300568
1897,0.0686117,0.931306
1898,6.75E-02,0.9324248
1899,6.66E-02,0.9333568
1900,6.59E-02,0.9340554
1901,6.54E-02,0.9344841
1902,6.53E-02,0.9346194
1903,6.55E-02,0.9344507
1904,6.59E-02,0.9339792
1905,6.67E-02,0.9332174
1906,6.77E-02,0.9321877
1907,6.90E-02,0.9309207
1908,7.05E-02,0.9294534
1909,7.21E-02,0.9278269
1910,7.38E-02,0.9260853
1911,0.0756503,0.9242731
1912,7.75E-02,0.9224342
1913,7.93E-02,0.9206102
1914,0.0810852,0.9188399
1915,8.28E-02,0.9171581
1916,8.43E-02,0.9155955
1917,8.57E-02,0.9141781
1918,8.70E-02,0.9129273
1919,8.81E-02,0.9118601
1920,8.89E-02,0.9109893
1921,8.96E-02,0.9103283
1922,0.0900522,0.9098762
1923,9.03E-02,0.9096348
1924,9.03E-02,0.9096032
1925,9.02E-02,0.9097775
1926,0.0897774,0.9101518
1927,0.089211,0.9107184
1928,8.85E-02,0.9114674
1929,8.75E-02,0.9123878
1930,8.65E-02,0.9134672
1931,8.52E-02,0.9146916
1932,8.39E-02,0.9160461
1933,0.0824147,0.9175149
1934,8.08E-02,0.9190809
1935,7.92E-02,0.9207264
1936,0.0774968,0.9224327
1937,7.57E-02,0.9241803
1938,7.40E-02,0.9259493
1939,7.22E-02,0.9277192
1940,7.05E-02,0.9294694
1941,6.88E-02,0.9311789
1942,6.71E-02,0.9328272
1943,6.55E-02,0.9343942
1944,6.41E-02,0.9358605
1945,6.27E-02,0.9372078
1946,0.0615094,0.9384194
1947,6.04E-02,0.9394804
1948,5.96E-02,0.9403781
1949,0.0588268,0.9411021
1950,5.83E-02,0.9416447
1951,5.79E-02,0.9420012
1952,0.0577593,0.9421699
1953,5.78E-02,0.9421521
1954,5.80E-02,0.9419523
1955,5.84E-02,0.9415779
1956,5.89E-02,0.941039
1957,5.96E-02,0.9403484
1958,6.04E-02,0.9395213
1959,6.14E-02,0.9385746
1960,6.24E-02,0.9375269
1961,6.35E-02,0.9363954
1962,0.0647283,0.9352033
1963,6.60E-02,0.9339718
1964,6.72E-02,0.9327218
1965,0.0684583,0.9314743
1966,0.0696836,0.9302493
1967,7.09E-02,0.9290661
1968,7.20E-02,0.9279425
1969,7.30E-02,0.9268952
1970,7.40E-02,0.9259393
1971,7.48E-02,0.9250891
1972,7.56E-02,0.9243551
1973,7.62E-02,0.9237472
1974,7.67E-02,0.9232733
1975,7.70E-02,0.9229397
1976,7.72E-02,0.9227505
1977,7.72E-02,0.9227086
1978,7.71E-02,0.9228147
1979,7.69E-02,0.9230682
1980,7.65E-02,0.9234669
1981,7.59E-02,0.9240023
1982,7.53E-02,0.9246732
1983,7.45E-02,0.9254733
1984,7.35E-02,0.9263952
1985,7.25E-02,0.9274303
1986,7.14E-02,0.9285691
1987,7.01E-02,0.9298014
1988,6.88E-02,0.931116
1989,6.74E-02,0.932501
1990,6.60E-02,0.9339441
1991,6.45E-02,0.9354324
1992,6.30E-02,0.9369528
1993,6.14E-02,0.9384919
1994,5.99E-02,0.9400359
1995,5.84E-02,0.9415715
1996,5.69E-02,0.943085
1997,5.54E-02,0.9445634
1998,5.39E-02,0.9459937
1999,5.26E-02,0.9473636
2000,5.13E-02,0.9486614
2001,5.00E-02,0.949887
2002,4.89E-02,0.9510125
2003,4.78E-02,0.9520277
2004,4.69E-02,0.9529239
2005,4.61E-02,0.9536937
2006,4.54E-02,0.9543313
2007,4.49E-02,0.9548323
2008,0.0444919,0.9551938
2009,4.42E-02,0.9554146
2010,4.41E-02,0.9554951
2011,4.42E-02,0.9554374
2012,4.43E-02,0.955245
2013,4.46E-02,0.9549231
2014,4.50E-02,0.9544781
2015,4.56E-02,0.9539179
2016,0.0461904,0.9532514
2017,4.69E-02,0.9524887
2018,4.77E-02,0.9516407
2019,4.86E-02,0.9507191
2020,0.0495883,0.9497361
2021,5.06E-02,0.9487044
2022,5.16E-02,0.9476368
2023,5.27E-02,0.9465464
2024,0.0537641,0.945446
2025,5.48E-02,0.9443482
2026,5.59E-02,0.9432654
2027,5.69E-02,0.9422094
2028,5.79E-02,0.9411915
2029,5.88E-02,0.9402222
2030,5.97E-02,0.9393114
2031,6.05E-02,0.938468
2032,6.13E-02,0.9377002
2033,6.19E-02,0.9370151
2034,6.25E-02,0.9364187
2035,6.30E-02,0.9359165
2036,6.34E-02,0.9355124
2037,6.36E-02,0.9352098
2038,6.38E-02,0.9350107
2039,6.39E-02,0.9349164
2040,6.38E-02,0.9349269
2041,6.37E-02,0.9350414
2042,0.0634464,0.9352583
2043,6.31E-02,0.9355749
2044,0.0626587,0.9359877
2045,6.21E-02,0.9364923
2046,6.15E-02,0.9370836
2047,6.08E-02,0.9377557
2048,6.00E-02,0.938502
2049,5.92E-02,0.9393153
2050,5.83E-02,0.9401878
2051,5.73E-02,0.9411111
2052,5.63E-02,0.9420767
2053,5.53E-02,0.9430752
2054,5.42E-02,0.9440972
2055,5.32E-02,0.9451331
2056,5.21E-02,0.9461731
2057,5.10E-02,0.9472072
2058,5.00E-02,0.9482257
2059,4.90E-02,0.9492176
2060,4.80E-02,0.9501746
2061,4.70E-02,0.9510872
2062,0.0461463,0.9519468
2063,4.53E-02,0.9527449
2064,4.46E-02,0.9534736
2065,4.39E-02,0.9541259
2066,4.33E-02,0.954695
2067,4.28E-02,0.9551755
2068,4.23E-02,0.9555624
2069,4.20E-02,0.9558517
2070,4.18E-02,0.9560403
2071,4.17E-02,0.9561262
2072,4.17E-02,0.9561083
2073,4.18E-02,0.9559864
2074,4.20E-02,0.9557614
2075,4.23E-02,0.955435
2076,4.27E-02,0.9550101
2077,4.32E-02,0.9544901
2078,4.38E-02,0.9538797
2079,0.0444221,0.953184
2080,4.52E-02,0.952409
2081,4.60E-02,0.9515614
2082,4.69E-02,0.9506482
2083,0.0478309,0.9496773
2084,4.88E-02,0.9486566
2085,4.99E-02,0.9475944
2086,5.09E-02,0.9464995
2087,5.20E-02,0.9453804
2088,5.31E-02,0.9442462
2089,5.43E-02,0.9431054
2090,5.54E-02,0.9419668
2091,5.65E-02,0.940839
2092,5.76E-02,0.9397302
2093,5.86E-02,0.9386485
2094,5.97E-02,0.9376015
2095,6.06E-02,0.9365965
2096,6.16E-02,0.9356404
2097,6.25E-02,0.9347395
2098,6.33E-02,0.9338997
2099,6.40E-02,0.9331264
2100,6.47E-02,0.9324243
2101,6.53E-02,0.9317977
2102,6.58E-02,0.9312503
2103,6.63E-02,0.9307851
2104,6.66E-02,0.9304045
2105,6.69E-02,0.9301106
2106,6.71E-02,0.9299044
2107,6.72E-02,0.9297868
2108,6.72E-02,0.9297578
2109,0.0671096,0.9298168
2110,6.69E-02,0.929963
2111,6.67E-02,0.9301947
2112,6.63E-02,0.9305096
2113,6.59E-02,0.9309053
2114,6.54E-02,0.9313784
2115,0.064849,0.9319254
2116,0.0642058,0.932542
2117,0.0634971,0.9332239
2118,6.27E-02,0.933966
2119,6.19E-02,0.934763
2120,6.10E-02,0.9356092
2121,0.0601121,0.9364986
2122,5.92E-02,0.9374251
2123,5.82E-02,0.9383821
2124,5.72E-02,0.9393631
2125,5.61E-02,0.940361
2126,5.51E-02,0.9413691
2127,5.41E-02,0.9423802
2128,5.30E-02,0.9433877
2129,0.0519968,0.9443845
2130,5.10E-02,0.9453636
2131,5.00E-02,0.9463186
2132,4.91E-02,0.947243
2133,4.81E-02,0.9481304
2134,4.73E-02,0.948975
2135,4.64E-02,0.9497713
2136,4.57E-02,0.950514
2137,4.50E-02,0.9511985
2138,4.43E-02,0.9518204
2139,0.0437221,0.9523759
2140,4.32E-02,0.952862
2141,4.28E-02,0.9532758
2142,4.24E-02,0.9536153
2143,0.0421135,0.9538791
2144,0.0419011,0.9540661
2145,4.18E-02,0.9541761
2146,4.17E-02,0.9542095
2147,4.17E-02,0.954167
2148,4.18E-02,0.9540502
2149,4.20E-02,0.953861
2150,4.22E-02,0.9536019
2151,4.25E-02,0.953276
2152,4.29E-02,0.9528866
2153,4.33E-02,0.9524378
2154,0.0438026,0.9519349
2155,4.43E-02,0.9513813
2156,4.49E-02,0.950782
2157,4.55E-02,0.9501421
2158,4.62E-02,0.9494668
2159,4.69E-02,0.9487616
2160,4.76E-02,0.9480322
2161,0.0483147,0.9472841
2162,4.91E-02,0.946523
2163,4.98E-02,0.9457544
2164,5.06E-02,0.9449841
2165,5.13E-02,0.9442173
2166,5.20E-02,0.9434596
2167,5.28E-02,0.9427159
2168,5.35E-02,0.9419913
2169,5.42E-02,0.9412906
2170,5.48E-02,0.9406182
2171,5.54E-02,0.9399784
2172,5.60E-02,0.939375
2173,5.66E-02,0.9388118
2174,5.71E-02,0.938292
2175,5.75E-02,0.9378188
2176,5.79E-02,0.9373946
2177,5.83E-02,0.9370218
2178,5.86E-02,0.9367023
2179,5.88E-02,0.9364378
2180,5.90E-02,0.9362295
2181,5.91E-02,0.9360783
2182,0.0592056,0.9359845
2183,5.92E-02,0.9359485
2184,5.92E-02,0.9359699
2185,5.91E-02,0.9360484
2186,5.89E-02,0.9361829
2187,5.87E-02,0.9363722
2188,5.84E-02,0.9366147
2189,5.81E-02,0.9369085
2190,5.78E-02,0.9372517
2191,5.73E-02,0.9376415
2192,0.0568781,0.9380753
2193,0.0563778,0.9385501
2194,5.58E-02,0.9390625
2195,5.53E-02,0.9396092
2196,5.47E-02,0.9401865
2197,5.40E-02,0.9407905
2198,5.34E-02,0.941417
2199,5.27E-02,0.9420621
2200,5.20E-02,0.9427215
2201,5.13E-02,0.9433906
2202,5.06E-02,0.9440652
2203,4.99E-02,0.9447408
2204,4.92E-02,0.9454128
2205,4.85E-02,0.9460769
2206,4.78E-02,0.9467288
2207,4.72E-02,0.947364
2208,4.65E-02,0.9479785
2209,4.59E-02,0.9485681
2210,4.53E-02,0.9491291
2211,4.48E-02,0.9496577
2212,4.43E-02,0.9501505
2213,0.0437858,0.9506043
2214,4.33E-02,0.9510161
2215,4.30E-02,0.9513833
2216,0.0426097,0.9517035
2217,4.23E-02,0.9519747
2218,4.21E-02,0.9521952
2219,4.19E-02,0.9523637
2220,4.17E-02,0.952479
2221,4.17E-02,0.9525406
2222,4.16E-02,0.9525482
2223,4.16E-02,0.9525018
2224,0.041723,0.9524018
2225,4.19E-02,0.9522489
2226,4.20E-02,0.9520441
2227,4.23E-02,0.9517889
2228,4.26E-02,0.951485
2229,4.29E-02,0.9511342
2230,4.33E-02,0.9507388
2231,4.37E-02,0.9503013
2232,4.41E-02,0.9498245
2233,0.0446335,0.9493111
2234,4.52E-02,0.9487643
2235,4.57E-02,0.9481872
2236,4.63E-02,0.9475833
2237,4.69E-02,0.9469559
2238,4.75E-02,0.9463087
2239,4.82E-02,0.9456453
2240,4.89E-02,0.9449693
2241,4.95E-02,0.9442844
2242,5.02E-02,0.9435941
2243,5.09E-02,0.9429021
2244,5.15E-02,0.942212
2245,5.22E-02,0.9415272
2246,5.29E-02,0.9408513
2247,5.35E-02,0.9401875
2248,5.42E-02,0.9395389
2249,5.48E-02,0.9389087
2250,5.54E-02,0.9382998
2251,5.59E-02,0.937715
2252,0.0564684,0.9371568
2253,0.0569804,0.9366277
2254,0.0574608,0.9361301
2255,5.79E-02,0.9356659
2256,5.83E-02,0.9352371
2257,5.87E-02,0.9348452
2258,5.90E-02,0.9344919
2259,5.93E-02,0.9341784
2260,5.96E-02,0.9339058
2261,5.98E-02,0.9336749
2262,6.00E-02,0.9334865
2263,6.01E-02,0.9333408
2264,6.02E-02,0.9332384
2265,0.060204,0.9331791
2266,6.02E-02,0.9331627
2267,6.02E-02,0.933189
2268,6.01E-02,0.9332573
2269,5.99E-02,0.933367
2270,5.98E-02,0.933517
2271,5.95E-02,0.9337062
2272,5.93E-02,0.9339334
2273,0.05901,0.9341971
2274,5.87E-02,0.9344956
2275,5.83E-02,0.934827
2276,5.79E-02,0.9351897
2277,0.0575305,0.9355813
2278,0.0570876,0.9359998
2279,5.66E-02,0.9364427
2280,5.61E-02,0.9369078
2281,5.56E-02,0.9373925
2282,5.51E-02,0.9378942
2283,5.46E-02,0.9384104
2284,5.40E-02,0.9389382
2285,5.34E-02,0.939475
2286,5.29E-02,0.940018
2287,5.23E-02,0.9405645
2288,5.17E-02,0.9411117
2289,5.12E-02,0.9416568
2290,0.0505866,0.9421973
2291,5.00E-02,0.9427305
2292,4.95E-02,0.9432538
2293,4.89E-02,0.9437647
2294,4.84E-02,0.9442608
2295,4.79E-02,0.94474
2296,4.74E-02,0.9452
2297,0.0469707,0.9456387
2298,4.65E-02,0.9460545
2299,4.61E-02,0.9464454
2300,4.57E-02,0.94681
2301,4.54E-02,0.9471469
2302,4.50E-02,0.9474549
2303,4.47E-02,0.9477329
2304,4.45E-02,0.9479802
2305,4.42E-02,0.948196
2306,4.40E-02,0.9483799
2307,4.38E-02,0.9485317
2308,4.37E-02,0.9486512
2309,4.36E-02,0.9487386
2310,4.35E-02,0.9487941
2311,4.35E-02,0.9488181
2312,4.35E-02,0.9488113
2313,4.35E-02,0.9487745
2314,0.0435336,0.9487086
2315,4.36E-02,0.9486146
2316,4.37E-02,0.9484938
2317,4.38E-02,0.9483474
2318,4.40E-02,0.948177
2319,4.42E-02,0.947984
2320,4.44E-02,0.9477701
2321,4.46E-02,0.9475368
2322,4.48E-02,0.9472861
2323,4.51E-02,0.9470196
2324,4.53E-02,0.9467393
2325,4.56E-02,0.946447
2326,4.59E-02,0.9461446
2327,0.0461859,0.945834
2328,4.65E-02,0.945517
2329,4.68E-02,0.9451955
2330,4.71E-02,0.9448714
2331,4.74E-02,0.9445463
2332,4.77E-02,0.9442222
2333,4.80E-02,0.9439006
2334,4.83E-02,0.9435833
2335,4.86E-02,0.9432718
2336,4.89E-02,0.9429675
2337,4.92E-02,0.942672
2338,4.95E-02,0.9423865
2339,4.97E-02,0.9421123
2340,5.00E-02,0.9418506
2341,5.02E-02,0.9416023
2342,0.0504113,0.9413685
2343,5.06E-02,0.94115
2344,5.08E-02,0.9409475
2345,5.10E-02,0.9407617
2346,0.0511186,0.9405931
2347,5.13E-02,0.9404421
2348,5.14E-02,0.9403091
2349,5.15E-02,0.9401942
2350,5.15E-02,0.9400976
2351,5.16E-02,0.9400192
2352,5.16E-02,0.9399589
2353,5.17E-02,0.9399165
2354,5.17E-02,0.9398917
2355,5.17E-02,0.9398841
2356,5.16E-02,0.9398932
2357,5.16E-02,0.9399183
2358,5.15E-02,0.9399588
2359,5.15E-02,0.9400139
2360,0.0513664,0.9400828
2361,5.13E-02,0.9401646
2362,5.12E-02,0.9402583
2363,5.10E-02,0.9403626
2364,5.09E-02,0.9404768
2365,5.07E-02,0.9405994
2366,5.06E-02,0.9407294
2367,5.04E-02,0.9408656
2368,5.03E-02,0.9410065
2369,5.01E-02,0.941151
2370,4.99E-02,0.9412977
2371,4.98E-02,0.9414452
2372,4.96E-02,0.9415924
2373,4.94E-02,0.9417379
2374,4.93E-02,0.9418803
2375,4.91E-02,0.9420184
2376,4.90E-02,0.942151
2377,4.88E-02,0.9422769
2378,4.87E-02,0.9423948
2379,4.86E-02,0.9425037
2380,4.84E-02,0.9426025
2381,4.83E-02,0.9426902
2382,0.0482336,0.9427659
2383,4.82E-02,0.9428288
2384,4.81E-02,0.942878
2385,4.80E-02,0.942913
2386,4.80E-02,0.942933
2387,4.80E-02,0.9429378
2388,4.80E-02,0.9429267
2389,4.80E-02,0.9428996
2390,4.80E-02,0.9428562
2391,4.80E-02,0.9427964
2392,4.81E-02,0.9427202
2393,4.82E-02,0.9426278
2394,4.83E-02,0.9425194
2395,4.84E-02,0.9423952
2396,4.85E-02,0.9422557
2397,4.86E-02,0.9421012
2398,4.88E-02,0.9419326
2399,4.89E-02,0.9417503
2400,4.91E-02,0.9415552
2401,0.049316,0.9413481
2402,4.95E-02,0.9411299
2403,0.0497314,0.9409015
2404,5.00E-02,0.940664
2405,5.02E-02,0.9404185
2406,5.04E-02,0.9401662
2407,5.07E-02,0.9399081
2408,0.0509112,0.9396456
2409,5.12E-02,0.9393798
2410,5.14E-02,0.939112
2411,5.17E-02,0.9388435
2412,5.19E-02,0.9385755
2413,5.22E-02,0.9383094
2414,5.24E-02,0.9380465
2415,5.27E-02,0.9377879
2416,5.29E-02,0.9375349
2417,5.31E-02,0.9372888
2418,5.34E-02,0.9370508
2419,5.36E-02,0.9368219
2420,5.38E-02,0.9366034
2421,5.40E-02,0.9363963
2422,5.41E-02,0.9362016
2423,5.43E-02,0.9360203
2424,5.45E-02,0.9358532
2425,0.054588,0.9357013
2426,5.47E-02,0.9355652
2427,0.0548082,0.9354457
2428,5.49E-02,0.9353433
2429,5.50E-02,0.9352587
2430,5.50E-02,0.9351923
2431,5.50E-02,0.9351445
2432,5.50E-02,0.9351155
2433,5.50E-02,0.9351056
2434,0.0550039,0.9351149
2435,5.50E-02,0.9351434
2436,5.49E-02,0.9351909
2437,0.0547975,0.9352574
2438,5.47E-02,0.9353433
2439,5.46E-02,0.9354475
2440,5.44E-02,0.9355695
2441,5.43E-02,0.9357088
2442,0.0540754,0.9358646
2443,5.39E-02,0.9360362
2444,0.0536682,0.9362229
2445,5.34E-02,0.9364234
2446,5.32E-02,0.9366368
2447,5.30E-02,0.9368619
2448,5.27E-02,0.9370975
2449,0.0524193,0.9373421
2450,5.21E-02,0.9375943
2451,5.19E-02,0.9378524
2452,5.16E-02,0.9381149
2453,5.13E-02,0.9383799
2454,5.10E-02,0.9386457
2455,5.07E-02,0.9389101
2456,5.04E-02,0.9391712
2457,5.01E-02,0.9394269
2458,4.98E-02,0.9396749
2459,4.96E-02,0.939913
2460,4.93E-02,0.9401389
2461,4.91E-02,0.94035
2462,4.88E-02,0.9405439
2463,4.86E-02,0.9407181
2464,4.85E-02,0.94087
2465,4.83E-02,0.9409969
2466,0.048171,0.9410961
2467,4.81E-02,0.9411651
2468,4.80E-02,0.9412009
2469,4.80E-02,0.941201
2470,4.80E-02,0.9411625
2471,4.80E-02,0.9410827
2472,4.81E-02,0.940959
2473,4.83E-02,0.9407885
2474,0.0484641,0.9405686
2475,4.87E-02,0.9402968
2476,4.90E-02,0.9399704
2477,4.94E-02,0.9395869
2478,4.98E-02,0.939144
2479,5.03E-02,0.9386392
2480,5.08E-02,0.9380702
2481,5.14E-02,0.9374351
2482,5.21E-02,0.9367316
2483,5.28E-02,0.935958
2484,0.0536637,0.9351123
2485,0.0545608,0.934193
2486,5.55E-02,0.9331986
2487,5.66E-02,0.9321277
2488,5.77E-02,0.9309792
2489,5.89E-02,0.9297519
2490,6.02E-02,0.9284452
2491,6.16E-02,0.9270583
2492,0.0630303,0.9255907
2493,6.46E-02,0.9240421
2494,6.62E-02,0.9224124
2495,6.79E-02,0.9207016
2496,6.97E-02,0.91891
2497,7.15E-02,0.9170378
2498,7.35E-02,0.9150859
2499,7.55E-02,0.9130549
2500,7.76E-02,0.9109457
