Preliminary design data,,
1551,,
Wavelength (nm),%R,%T
950,0.8254437,0.1744964
951,0.8140308,0.1859024
952,0.8083887,0.1915386
953,0.8128006,0.1871237
954,0.8287988,0.171127
955,0.85329,0.1466412
956,0.8805202,0.1194187
957,0.9056982,9.42E-02
958,0.9265823,7.34E-02
959,0.9429051,5.71E-02
960,0.955306,0.0446602
961,0.9646114,3.54E-02
962,0.9716246,2.83E-02
963,0.9769455,2.30E-02
964,0.981021,1.90E-02
965,0.9841763,1.58E-02
966,0.9866462,1.33E-02
967,0.9886006,0.0113824
968,0.9901631,9.82E-03
969,0.9914242,8.56E-03
970,0.9924512,7.53E-03
971,0.9932942,6.69E-03
972,0.9939911,6.00E-03
973,0.9945709,5.42E-03
974,0.9950558,4.93E-03
975,0.9954633,4.53E-03
976,0.9958067,4.18E-03
977,0.9960968,3.89E-03
978,0.9963421,3.65E-03
979,0.9965492,3.44E-03
980,0.9967236,3.27E-03
981,0.9968696,3.12E-03
982,0.9969907,3.00E-03
983,0.9970895,2.90E-03
984,0.9971684,2.82E-03
985,0.9972288,2.76E-03
986,0.9972721,2.72E-03
987,0.9972993,2.69E-03
988,0.9973109,2.68E-03
989,0.9973072,2.68E-03
990,0.9972881,2.70E-03
991,0.9972535,2.74E-03
992,0.9972026,2.79E-03
993,0.997135,2.86E-03
994,0.9970493,2.94E-03
995,0.9969442,3.05E-03
996,0.9968181,3.17E-03
997,0.9966691,3.32E-03
998,0.9964951,3.50E-03
999,0.9962937,3.70E-03
1000,0.9960626,3.93E-03
1001,0.9957998,4.19E-03
1002,0.9955034,4.49E-03
1003,0.9951724,4.82E-03
1004,0.9948077,5.19E-03
1005,0.9944124,5.58E-03
1006,0.9939931,6.00E-03
1007,0.9935607,6.43E-03
1008,0.9931313,6.86E-03
1009,0.9927254,7.27E-03
1010,0.9923673,7.63E-03
1011,0.9920815,7.91E-03
1012,0.9918889,8.11E-03
1013,0.9918032,8.19E-03
1014,0.9918284,8.17E-03
1015,0.9919592,8.03E-03
1016,0.9921825,7.81E-03
1017,0.9924794,7.51E-03
1018,0.9928269,7.17E-03
1019,0.9932008,6.79E-03
1020,0.9935789,6.42E-03
1021,0.9939442,6.05E-03
1022,0.9942858,5.71E-03
1023,0.994597,5.40E-03
1024,0.9948753,5.12E-03
1025,0.9951198,4.88E-03
1026,0.9953315,4.66E-03
1027,0.9955117,4.48E-03
1028,0.9956622,4.33E-03
1029,0.9957846,0.0042104
1030,0.9958806,4.11E-03
1031,0.9959517,4.04E-03
1032,0.9959989,4.00E-03
1033,0.9960231,3.97E-03
1034,0.996025,3.97E-03
1035,0.996005,3.99E-03
1036,0.9959632,4.03E-03
1037,0.9958996,4.10E-03
1038,0.995814,4.18E-03
1039,0.9957064,4.29E-03
1040,0.9955768,4.42E-03
1041,0.9954253,4.57E-03
1042,0.9952527,4.74E-03
1043,0.9950601,4.94E-03
1044,0.9948502,5.15E-03
1045,0.9946267,5.37E-03
1046,0.9943954,5.60E-03
1047,0.9941643,5.83E-03
1048,0.9939436,6.05E-03
1049,0.9937456,6.25E-03
1050,0.9935837,6.41E-03
1051,0.9934714,6.52E-03
1052,0.9934198,6.58E-03
1053,0.9934359,6.56E-03
1054,0.9935215,6.47E-03
1055,0.993672,6.32E-03
1056,0.9938784,6.12E-03
1057,0.994128,5.87E-03
1058,0.9944069,5.59E-03
1059,0.9947015,5.29E-03
1060,0.9950001,5.00E-03
1061,0.9952922,4.70E-03
1062,0.9955718,4.42E-03
1063,0.9958342,4.16E-03
1064,0.9960765,3.92E-03
1065,0.9962974,3.70E-03
1066,0.9964964,3.50E-03
1067,0.9966741,3.32E-03
1068,0.9968312,3.16E-03
1069,0.9969687,3.03E-03
1070,0.997088,2.91E-03
1071,0.9971899,2.81E-03
1072,0.9972757,2.72E-03
1073,0.9973462,2.65E-03
1074,0.9974024,2.59E-03
1075,0.9974446,2.55E-03
1076,0.9974735,2.52E-03
1077,0.9974893,2.51E-03
1078,0.9974921,2.50E-03
1079,0.9974817,2.51E-03
1080,0.9974579,2.54E-03
1081,0.99742,2.58E-03
1082,0.9973671,2.63E-03
1083,0.9972981,2.70E-03
1084,0.9972116,2.78E-03
1085,0.9971056,2.89E-03
1086,0.9969777,3.02E-03
1087,0.9968252,3.17E-03
1088,0.9966444,3.35E-03
1089,0.9964313,3.56E-03
1090,0.996181,3.81E-03
1091,0.9958881,4.11E-03
1092,0.9955475,4.45E-03
1093,0.9951553,4.84E-03
1094,0.994711,5.28E-03
1095,0.9942186,5.78E-03
1096,0.9936852,6.31E-03
1097,0.9931164,6.88E-03
1098,0.9925131,7.48E-03
1099,0.9918774,8.12E-03
1100,0.9912233,8.77E-03
1101,0.9905843,9.41E-03
1102,0.9900082,9.99E-03
1103,0.9895542,1.04E-02
1104,0.9892796,1.07E-02
1105,0.9892232,1.08E-02
1106,0.9893948,1.06E-02
1107,0.9897716,0.0102236
1108,0.9903061,9.69E-03
1109,0.9909403,9.05E-03
1110,0.9916189,8.38E-03
1111,0.9922975,7.70E-03
1112,0.9929455,7.05E-03
1113,0.9935446,6.45E-03
1114,0.9940863,5.91E-03
1115,0.9945684,5.43E-03
1116,0.994993,5.00E-03
1117,0.995364,4.63E-03
1118,0.9956864,4.31E-03
1119,0.9959654,4.03E-03
1120,0.9962059,3.79E-03
1121,0.996413,3.58E-03
1122,0.9965898,3.41E-03
1123,0.9967399,3.26E-03
1124,0.996866,3.13E-03
1125,0.9969707,3.02E-03
1126,0.9970558,2.94E-03
1127,0.997123,2.87E-03
1128,0.9971735,2.82E-03
1129,0.9972081,2.79E-03
1130,0.9972273,2.77E-03
1131,0.9972313,2.76E-03
1132,0.9972201,2.77E-03
1133,0.9971932,2.80E-03
1134,0.9971496,2.85E-03
1135,0.997088,2.91E-03
1136,0.9970066,2.99E-03
1137,0.9969032,3.09E-03
1138,0.9967758,3.22E-03
1139,0.9966241,3.37E-03
1140,0.9964522,3.54E-03
1141,0.9962693,3.72E-03
1142,0.9960815,3.91E-03
1143,0.9958815,4.11E-03
1144,0.9956505,4.34E-03
1145,0.9953704,4.62E-03
1146,0.9950285,4.97E-03
1147,0.9946147,5.38E-03
1148,0.9941182,5.88E-03
1149,0.9935255,6.47E-03
1150,0.9928203,7.17E-03
1151,0.9919829,8.01E-03
1152,0.9909907,9.00E-03
1153,0.9898201,0.010173
1154,0.9884496,1.15E-02
1155,0.9868667,1.31E-02
1156,0.9850788,1.49E-02
1157,0.9831302,1.69E-02
1158,0.9811206,1.89E-02
1159,0.9792192,2.08E-02
1160,0.9776533,2.23E-02
1161,0.9766604,2.33E-02
1162,0.9764063,2.36E-02
1163,0.9769174,2.31E-02
1164,0.9780717,2.19E-02
1165,0.9796554,2.03E-02
1166,0.9814422,1.85E-02
1167,0.9832503,1.67E-02
1168,0.9849609,0.0150306
1169,0.9865119,1.35E-02
1170,0.9878811,1.21E-02
1171,0.9890697,1.09E-02
1172,0.9900914,9.90E-03
1173,0.990965,9.03E-03
1174,0.9917096,8.28E-03
1175,0.9923437,7.65E-03
1176,0.9928831,7.11E-03
1177,0.9933419,6.65E-03
1178,0.9937316,6.26E-03
1179,0.994062,5.93E-03
1180,0.9943411,5.65E-03
1181,0.9945755,5.41E-03
1182,0.9947706,5.22E-03
1183,0.9949308,5.06E-03
1184,0.9950595,4.93E-03
1185,0.9951595,4.83E-03
1186,0.995233,4.75E-03
1187,0.9952816,4.70E-03
1188,0.9953064,4.68E-03
1189,0.9953081,4.68E-03
1190,0.995287,4.70E-03
1191,0.995243,4.74E-03
1192,0.9951755,4.81E-03
1193,0.9950838,4.90E-03
1194,0.9949664,5.01E-03
1195,0.9948217,5.16E-03
1196,0.9946474,5.33E-03
1197,0.9944407,5.54E-03
1198,0.9941984,5.78E-03
1199,0.9939163,6.06E-03
1200,0.9935899,6.38E-03
1201,0.9932139,6.76E-03
1202,0.9927817,7.19E-03
1203,0.9922859,7.68E-03
1204,0.9917186,8.24E-03
1205,0.9910709,8.89E-03
1206,0.9903336,9.62E-03
1207,0.9894981,1.05E-02
1208,0.9885572,0.0113913
1209,0.9875069,0.0124368
1210,0.9863495,1.36E-02
1211,0.985097,1.48E-02
1212,0.9837758,1.62E-02
1213,0.9824311,1.75E-02
1214,0.9811299,1.88E-02
1215,0.9799595,2.00E-02
1216,0.9790189,2.09E-02
1217,0.9784024,2.15E-02
1218,0.9781789,2.17E-02
1219,0.9783736,0.0215307
1220,0.9789609,2.09E-02
1221,0.979872,2.00E-02
1222,0.9810132,1.89E-02
1223,0.982287,1.76E-02
1224,0.9836075,1.63E-02
1225,0.9849087,1.50E-02
1226,0.9861459,1.38E-02
1227,0.9872926,1.27E-02
1228,0.9883369,1.16E-02
1229,0.989276,1.07E-02
1230,0.9901133,9.84E-03
1231,0.9908555,9.10E-03
1232,0.991511,8.45E-03
1233,0.9920886,7.87E-03
1234,0.9925967,7.37E-03
1235,0.9930434,6.92E-03
1236,0.9934356,6.53E-03
1237,0.9937798,6.19E-03
1238,0.9940815,5.89E-03
1239,0.9943456,5.62E-03
1240,0.9945761,5.39E-03
1241,0.9947767,5.19E-03
1242,0.9949503,5.02E-03
1243,0.9950995,4.87E-03
1244,0.9952266,4.74E-03
1245,0.9953333,4.64E-03
1246,0.9954211,4.55E-03
1247,0.9954911,4.48E-03
1248,0.9955445,4.42E-03
1249,0.9955818,4.39E-03
1250,0.9956036,4.36E-03
1251,0.9956102,4.36E-03
1252,0.9956017,4.36E-03
1253,0.9955778,4.38E-03
1254,0.9955381,4.42E-03
1255,0.9954821,4.47E-03
1256,0.9954087,4.54E-03
1257,0.9953165,4.63E-03
1258,0.9952036,4.74E-03
1259,0.9950676,4.87E-03
1260,0.9949051,5.02E-03
1261,0.9947115,5.20E-03
1262,0.9944812,0.0054158
1263,0.9942068,5.67E-03
1264,0.9938806,5.97E-03
1265,0.9934967,6.33E-03
1266,0.9930584,6.73E-03
1267,0.9925882,7.17E-03
1268,0.9921304,7.61E-03
1269,0.9917272,8.02E-03
1270,0.9913811,8.38E-03
1271,0.9910515,8.74E-03
1272,0.9906899,9.13E-03
1273,0.9902639,9.58E-03
1274,0.9897586,1.01E-02
1275,0.989169,1.07E-02
1276,0.9884947,1.14E-02
1277,0.9877377,1.22E-02
1278,0.9869019,1.30E-02
1279,0.9859939,1.39E-02
1280,0.9850245,0.0148876
1281,0.9840105,1.59E-02
1282,0.9829745,1.69E-02
1283,0.9819472,1.80E-02
1284,0.9809666,1.89E-02
1285,0.9800768,1.98E-02
1286,0.979324,2.06E-02
1287,0.9787518,2.12E-02
1288,0.9783956,2.15E-02
1289,0.9782767,2.16E-02
1290,0.9783992,2.15E-02
1291,0.9787495,2.12E-02
1292,0.9792991,2.06E-02
1293,0.9800091,1.99E-02
1294,0.9808363,0.0190882
1295,0.9817379,1.82E-02
1296,0.9826757,0.0172557
1297,0.9836181,1.63E-02
1298,0.9845407,0.0153972
1299,0.9854258,1.45E-02
1300,0.9862617,1.37E-02
1301,0.9870415,1.29E-02
1302,0.987762,1.22E-02
1303,0.9884224,1.15E-02
1304,0.9890238,1.09E-02
1305,0.9895682,1.04E-02
1306,0.9900584,9.89E-03
1307,0.9904969,9.46E-03
1308,0.9908869,9.06E-03
1309,0.9912306,8.72E-03
1310,0.9915303,8.42E-03
1311,0.9917875,8.16E-03
1312,0.9920031,7.94E-03
1313,0.9921775,7.77E-03
1314,0.9923098,7.63E-03
1315,0.9923986,7.54E-03
1316,0.9924411,7.49E-03
1317,0.9924337,7.49E-03
1318,0.9923722,7.54E-03
1319,0.9922523,7.65E-03
1320,0.9920726,7.82E-03
1321,0.9918373,8.04E-03
1322,0.9915623,8.30E-03
1323,0.99128,8.57E-03
1324,0.9910412,8.79E-03
1325,0.9909031,8.93E-03
1326,0.990906,8.92E-03
1327,0.9910523,8.79E-03
1328,0.9913064,8.54E-03
1329,0.9916152,8.25E-03
1330,0.9919309,7.95E-03
1331,0.9922213,7.68E-03
1332,0.9924701,7.44E-03
1333,0.992672,7.25E-03
1334,0.9928278,7.10E-03
1335,0.9929408,7.00E-03
1336,0.9930157,6.93E-03
1337,0.9930562,6.89E-03
1338,0.9930661,6.89E-03
1339,0.9930482,6.91E-03
1340,0.9930049,6.96E-03
1341,0.9929378,7.03E-03
1342,0.9928482,7.12E-03
1343,0.9927367,7.23E-03
1344,0.9926038,7.37E-03
1345,0.9924494,7.52E-03
1346,0.9922734,7.70E-03
1347,0.9920752,7.90E-03
1348,0.9918541,8.12E-03
1349,0.991609,8.37E-03
1350,0.9913388,8.64E-03
1351,0.9910419,8.94E-03
1352,0.9907166,9.26E-03
1353,0.9903609,9.62E-03
1354,0.9899726,1.00E-02
1355,0.989549,1.04E-02
1356,0.9890872,1.09E-02
1357,0.988584,1.14E-02
1358,0.9880356,1.19E-02
1359,0.9874378,1.25E-02
1360,0.9867861,1.32E-02
1361,0.986075,1.39E-02
1362,0.9852989,0.0146815
1363,0.9844511,1.55E-02
1364,0.9835241,1.65E-02
1365,0.9825095,1.75E-02
1366,0.9813979,1.86E-02
1367,0.9801788,1.98E-02
1368,0.9788401,2.11E-02
1369,0.9773681,2.26E-02
1370,0.9757478,2.42E-02
1371,0.9739616,2.60E-02
1372,0.9719901,2.80E-02
1373,0.969811,3.02E-02
1374,0.9673991,3.26E-02
1375,0.9647259,3.53E-02
1376,0.9617589,3.82E-02
1377,0.9584618,4.15E-02
1378,0.9547927,4.52E-02
1379,0.9507051,4.93E-02
1380,0.9461458,0.0538298
1381,0.9410666,5.89E-02
1382,0.9353926,0.0645817
1383,0.92905,7.09E-02
1384,0.9219575,7.80E-02
1385,0.9140258,0.0859459
1386,0.9051586,0.0948122
1387,0.8952531,0.1047167
1388,0.8842025,0.1157661
1389,0.8718994,0.128068
1390,0.8582403,0.1417259
1391,0.8431328,0.156832
1392,0.8265046,0.1734588
1393,0.8083153,0.1916467
1394,0.78857,0.2113904
1395,0.7673351,0.2326239
1396,0.7447523,0.2552052
1397,0.7210541,0.2789019
1398,0.6965694,0.3033852
1399,0.6717221,0.3282313
1400,0.6470179,0.3529344
1401,0.622973,0.3769783
1402,0.6002128,0.3997379
1403,0.5792847,0.4206656
1404,0.5606559,0.4392941
1405,0.5446732,0.4552768
1406,0.5315367,0.4684134
1407,0.5212927,0.4786578
1408,0.5138448,0.4861063
1409,0.5089787,0.4909731
1410,0.5063958,0.4935568
1411,0.5057477,0.4942056
1412,0.5066684,0.4932857
1413,0.5087991,0.4911558
1414,0.5118061,0.4881495
1415,0.5153919,0.4845644
1416,0.5193001,0.4806568
1417,0.5233154,0.476642
1418,0.5272623,0.4726955
1419,0.5310002,0.468958
1420,0.5344189,0.4655395
1421,0.5374339,0.4625247
1422,0.5399816,0.459977
1423,0.5420148,0.4579438
1424,0.5434993,0.4564592
1425,0.5444103,0.455548
1426,0.5447299,0.455228
1427,0.5444445,0.455513
1428,0.5435428,0.4564142
1429,0.5420138,0.4579426
1430,0.5398448,0.4601109
1431,0.5370201,0.4629348
1432,0.5335187,0.4664353
1433,0.5293126,0.4706403
1434,0.5243648,0.475587
1435,0.5186265,0.481324
1436,0.5120352,0.4879139
1437,0.5045114,0.4954362
1438,0.4959557,0.5039901
1439,0.4862467,0.5136973
1440,0.4752379,0.5247039
1441,0.4627843,0.5371552
1442,0.4486701,0.5512669
1443,0.4326811,0.5672531
1444,0.4145957,0.5853356
1445,0.3942031,0.6057249
1446,0.3713356,0.628589
1447,0.3459102,0.6540109
1448,0.3179843,0.6819331
1449,0.2878157,0.7120979
1450,0.2559161,0.7439942
1451,0.2230756,0.7768316
1452,0.1903392,0.8095654
1453,0.1589177,0.8409849
1454,0.1300394,0.8698621
1455,0.1047742,0.8951272
1456,8.39E-02,0.9160247
1457,6.77E-02,0.9322041
1458,5.62E-02,0.9437218
1459,4.89E-02,0.9509708
1460,0.0453449,0.9545662
1461,4.47E-02,0.9552255
1462,4.63E-02,0.9536656
1463,4.94E-02,0.9505537
1464,5.35E-02,0.9464601
1465,5.81E-02,0.9418483
1466,6.28E-02,0.9370781
1467,6.75E-02,0.9324188
1468,7.19E-02,0.9280631
1469,7.58E-02,0.9241433
1470,7.92E-02,0.9207438
1471,8.20E-02,0.9179132
1472,8.43E-02,0.9156708
1473,8.59E-02,0.9140154
1474,8.70E-02,0.9129303
1475,8.76E-02,0.9123864
1476,8.76E-02,0.9123461
1477,0.0871733,0.9127646
1478,8.63E-02,0.9135928
1479,8.52E-02,0.9147776
1480,0.0836745,0.9162642
1481,8.19E-02,0.9179956
1482,8.00E-02,0.9199157
1483,7.80E-02,0.92197
1484,7.58E-02,0.9241059
1485,7.37E-02,0.9262737
1486,7.15E-02,0.9284279
1487,6.94E-02,0.930527
1488,6.74E-02,0.9325349
1489,6.55E-02,0.934421
1490,6.38E-02,0.9361607
1491,6.22E-02,0.9377351
1492,6.08E-02,0.9391314
1493,5.96E-02,0.9403424
1494,0.0585742,0.9413665
1495,5.77E-02,0.9422066
1496,5.71E-02,0.9428698
1497,0.0565748,0.9433668
1498,5.62E-02,0.9437113
1499,5.60E-02,0.9439189
1500,5.59E-02,0.9440068
1501,5.60E-02,0.9439923
1502,5.60E-02,0.9438941
1503,5.62E-02,0.9437305
1504,0.056425,0.9435188
1505,5.67E-02,0.9432757
1506,5.69E-02,0.9430165
1507,5.72E-02,0.9427548
1508,5.74E-02,0.9425032
1509,5.77E-02,0.9422723
1510,0.0578744,0.9420713
1511,0.0580385,0.9419073
1512,5.82E-02,0.9417866
1513,5.82E-02,0.9417134
1514,5.83E-02,0.9416904
1515,5.82E-02,0.9417195
1516,5.81E-02,0.9418007
1517,5.80E-02,0.9419334
1518,5.78E-02,0.9421155
1519,5.76E-02,0.9423442
1520,5.73E-02,0.942616
1521,0.0570215,0.9429262
1522,5.67E-02,0.9432697
1523,5.63E-02,0.9436409
1524,5.59E-02,0.9440337
1525,5.55E-02,0.9444417
1526,5.51E-02,0.9448579
1527,5.47E-02,0.9452755
1528,5.43E-02,0.9456877
1529,5.39E-02,0.9460875
1530,5.35E-02,0.9464681
1531,5.31E-02,0.9468216
1532,5.28E-02,0.9471433
1533,5.25E-02,0.9474277
1534,0.0522794,0.9476694
1535,5.21E-02,0.9478642
1536,5.19E-02,0.9480082
1537,5.19E-02,0.9480982
1538,5.18E-02,0.9481323
1539,5.18E-02,0.9481089
1540,5.19E-02,0.9480276
1541,5.21E-02,0.9478897
1542,0.0522541,0.9476956
1543,5.25E-02,0.9474474
1544,5.28E-02,0.947148
1545,5.31E-02,0.9468011
1546,5.35E-02,0.9464111
1547,5.40E-02,0.9459827
1548,5.44E-02,0.9455217
1549,5.49E-02,0.9450338
1550,5.54E-02,0.9445254
1551,5.59E-02,0.9440029
1552,5.65E-02,0.943473
1553,5.70E-02,0.9429424
1554,5.75E-02,0.9424178
1555,0.058046,0.9419057
1556,5.85E-02,0.9414122
1557,5.90E-02,0.9409437
1558,5.94E-02,0.9405056
1559,5.98E-02,0.9401033
1560,6.02E-02,0.9397416
1561,6.05E-02,0.9394256
1562,6.08E-02,0.9391584
1563,6.10E-02,0.9389434
1564,6.12E-02,0.9387832
1565,6.13E-02,0.9386795
1566,6.13E-02,0.938634
1567,6.13E-02,0.9386475
1568,6.12E-02,0.9387203
1569,6.11E-02,0.938852
1570,6.09E-02,0.9390417
1571,6.07E-02,0.9392881
1572,6.04E-02,0.9395894
1573,6.00E-02,0.9399431
1574,5.96E-02,0.9403466
1575,5.92E-02,0.9407965
1576,5.87E-02,0.9412893
1577,5.81E-02,0.9418211
1578,5.76E-02,0.9423877
1579,5.70E-02,0.9429846
1580,5.63E-02,0.9436073
1581,5.57E-02,0.9442482
1582,5.50E-02,0.944905
1583,5.44E-02,0.9455726
1584,5.37E-02,0.9462459
1585,5.30E-02,0.9469198
1586,5.24E-02,0.9475891
1587,5.17E-02,0.9482488
1588,5.11E-02,0.948894
1589,5.04E-02,0.9495198
1590,4.98E-02,0.9501217
1591,4.93E-02,0.9506952
1592,4.87E-02,0.9512362
1593,4.82E-02,0.9517409
1594,4.77E-02,0.9522055
1595,4.73E-02,0.9526269
1596,4.70E-02,0.9530024
1597,4.66E-02,0.9533294
1598,4.63E-02,0.9536057
1599,4.61E-02,0.9538299
1600,4.60E-02,0.9540008
1601,4.58E-02,0.9541174
1602,4.58E-02,0.9541796
1603,4.58E-02,0.9541876
1604,4.58E-02,0.9541417
1605,0.0459123,0.9540431
1606,4.61E-02,0.9538933
1607,4.63E-02,0.953694
1608,4.65E-02,0.9534474
1609,4.68E-02,0.9531562
1610,4.71E-02,0.9528232
1611,4.75E-02,0.9524516
1612,4.79E-02,0.9520448
1613,4.83E-02,0.9516069
1614,4.88E-02,0.9511413
1615,4.93E-02,0.9506524
1616,4.98E-02,0.9501442
1617,5.03E-02,0.9496212
1618,5.09E-02,0.9490876
1619,5.14E-02,0.9485477
1620,5.20E-02,0.948006
1621,5.25E-02,0.9474654
1622,5.30E-02,0.9469314
1623,5.35E-02,0.9464081
1624,5.41E-02,0.9458994
1625,5.45E-02,0.9454094
1626,5.50E-02,0.9449413
1627,5.55E-02,0.9444987
1628,5.59E-02,0.9440846
1629,5.63E-02,0.9437022
1630,5.66E-02,0.9433537
1631,5.69E-02,0.9430417
1632,5.72E-02,0.9427683
1633,5.74E-02,0.942535
1634,5.76E-02,0.9423434
1635,5.78E-02,0.9421948
1636,5.79E-02,0.9420897
1637,5.79E-02,0.9420289
1638,5.79E-02,0.9420125
1639,5.79E-02,0.9420406
1640,5.78E-02,0.9421128
1641,5.77E-02,0.9422285
1642,5.76E-02,0.9423865
1643,5.74E-02,0.9425857
1644,5.71E-02,0.9428246
1645,5.69E-02,0.9431016
1646,5.65E-02,0.9434148
1647,5.62E-02,0.9437622
1648,5.58E-02,0.9441413
1649,5.54E-02,0.9445499
1650,5.50E-02,0.9449852
1651,5.45E-02,0.9454444
1652,5.40E-02,0.9459247
1653,5.35E-02,0.9464231
1654,5.30E-02,0.9469364
1655,5.25E-02,0.9474616
1656,5.20E-02,0.9479953
1657,5.14E-02,0.9485344
1658,5.09E-02,0.9490754
1659,5.03E-02,0.9496153
1660,4.98E-02,0.9501507
1661,4.93E-02,0.9506795
1662,0.0487535,0.9512053
1663,4.82E-02,0.951717
1664,4.77E-02,0.9522119
1665,4.73E-02,0.9526868
1666,4.68E-02,0.9531393
1667,4.64E-02,0.9535667
1668,4.60E-02,0.9539666
1669,4.56E-02,0.9543369
1670,4.53E-02,0.9546754
1671,4.50E-02,0.9549806
1672,0.0447081,0.9552509
1673,4.45E-02,0.9554847
1674,4.43E-02,0.9556812
1675,4.41E-02,0.9558395
1676,4.40E-02,0.9559588
1677,4.39E-02,0.9560391
1678,0.0438792,0.95608
1679,4.39E-02,0.9560816
1680,4.39E-02,0.9560446
1681,0.04399,0.9559693
1682,4.41E-02,0.955851
1683,4.43E-02,0.9556969
1684,4.45E-02,0.9555082
1685,4.47E-02,0.9552864
1686,4.49E-02,0.9550331
1687,4.52E-02,0.95475
1688,4.55E-02,0.9544391
1689,4.59E-02,0.9541025
1690,4.62E-02,0.9537423
1691,4.66E-02,0.953361
1692,4.70E-02,0.9529608
1693,4.74E-02,0.9525445
1694,4.78E-02,0.9521142
1695,4.83E-02,0.9516729
1696,4.87E-02,0.9512229
1697,4.92E-02,0.950767
1698,4.97E-02,0.9503078
1699,0.0501124,0.949848
1700,5.06E-02,0.9493899
1701,0.0510247,0.9489358
1702,5.15E-02,0.9484885
1703,5.19E-02,0.9480506
1704,5.23E-02,0.9476242
1705,5.27E-02,0.9472116
1706,5.31E-02,0.946815
1707,5.35E-02,0.9464362
1708,5.39E-02,0.9460773
1709,5.42E-02,0.9457399
1710,5.45E-02,0.9454267
1711,5.48E-02,0.9451382
1712,5.51E-02,0.9448755
1713,5.53E-02,0.9446401
1714,0.0555286,0.9444327
1715,5.57E-02,0.9442543
1716,5.59E-02,0.9441055
1717,0.0559745,0.943987
1718,5.61E-02,0.9438989
1719,5.61E-02,0.9438416
1720,5.61E-02,0.9438151
1721,0.0561427,0.9438189
1722,5.61E-02,0.9438531
1723,5.60E-02,0.943917
1724,5.60E-02,0.9440104
1725,5.58E-02,0.9441323
1726,5.57E-02,0.9442822
1727,5.55E-02,0.9444588
1728,5.53E-02,0.9446613
1729,5.51E-02,0.9448883
1730,5.48E-02,0.9451385
1731,5.46E-02,0.9454107
1732,0.0542588,0.9457031
1733,5.39E-02,0.9460143
1734,5.36E-02,0.9463425
1735,5.33E-02,0.9466861
1736,5.29E-02,0.9470431
1737,5.26E-02,0.9474117
1738,5.22E-02,0.94779
1739,5.18E-02,0.9481761
1740,5.14E-02,0.9485679
1741,5.10E-02,0.9489635
1742,0.0506013,0.9493608
1743,5.02E-02,0.9497579
1744,4.98E-02,0.9501527
1745,4.94E-02,0.9505433
1746,4.90E-02,0.9509279
1747,4.87E-02,0.9513043
1748,0.0482913,0.9516709
1749,4.79E-02,0.9520258
1750,4.76E-02,0.9523674
1751,4.73E-02,0.9526939
1752,4.70E-02,0.9530038
1753,0.0466666,0.9532957
1754,4.64E-02,0.9535681
1755,4.61E-02,0.9538199
1756,4.59E-02,0.9540498
1757,4.57E-02,0.9542568
1758,4.55E-02,0.9544399
1759,0.0453639,0.9545985
1760,4.52E-02,0.9547318
1761,4.51E-02,0.9548396
1762,4.50E-02,0.9549212
1763,4.50E-02,0.954976
1764,4.50E-02,0.955004
1765,4.50E-02,0.9550053
1766,4.50E-02,0.9549798
1767,4.50E-02,0.9549279
1768,4.51E-02,0.9548498
1769,4.52E-02,0.9547461
1770,4.53E-02,0.9546173
1771,4.55E-02,0.9544643
1772,4.57E-02,0.9542877
1773,4.59E-02,0.9540887
1774,4.61E-02,0.953868
1775,4.63E-02,0.953627
1776,4.66E-02,0.9533668
1777,0.0468744,0.9530886
1778,4.72E-02,0.9527939
1779,4.75E-02,0.9524841
1780,4.78E-02,0.9521605
1781,4.81E-02,0.9518251
1782,4.85E-02,0.951479
1783,4.88E-02,0.951124
1784,4.92E-02,0.9507615
1785,4.96E-02,0.9503933
1786,4.99E-02,0.9500209
1787,0.0503174,0.9496461
1788,5.07E-02,0.9492704
1789,5.11E-02,0.9488955
1790,5.14E-02,0.9485229
1791,5.18E-02,0.9481543
1792,5.22E-02,0.9477911
1793,5.25E-02,0.9474349
1794,5.29E-02,0.9470872
1795,5.32E-02,0.9467493
1796,5.35E-02,0.9464227
1797,5.39E-02,0.9461086
1798,5.42E-02,0.9458083
1799,5.44E-02,0.945523
1800,5.47E-02,0.9452537
1801,5.50E-02,0.9450015
1802,5.52E-02,0.9447675
1803,5.54E-02,0.9445523
1804,5.56E-02,0.944357
1805,5.58E-02,0.9441821
1806,0.055936,0.9440283
1807,0.0560681,0.9438963
1808,5.62E-02,0.9437864
1809,5.63E-02,0.943699
1810,5.63E-02,0.9436345
1811,5.64E-02,0.943593
1812,5.64E-02,0.9435746
1813,5.64E-02,0.9435795
1814,5.64E-02,0.9436078
1815,0.0563054,0.9436592
1816,5.62E-02,0.9437335
1817,0.0561345,0.9438302
1818,5.60E-02,0.943949
1819,5.59E-02,0.9440897
1820,5.57E-02,0.9442514
1821,5.55E-02,0.9444347
1822,5.53E-02,0.9446379
1823,5.51E-02,0.9448603
1824,5.49E-02,0.9451011
1825,5.46E-02,0.9453593
1826,5.43E-02,0.945634
1827,5.40E-02,0.9459242
1828,5.37E-02,0.9462289
1829,5.34E-02,0.946547
1830,5.31E-02,0.9468774
1831,5.27E-02,0.9472187
1832,0.0523951,0.9475698
1833,5.20E-02,0.9479296
1834,5.17E-02,0.9482965
1835,5.13E-02,0.9486696
1836,5.09E-02,0.9490473
1837,5.05E-02,0.9494283
1838,5.02E-02,0.9498114
1839,4.98E-02,0.9501951
1840,4.94E-02,0.9505782
1841,4.90E-02,0.9509581
1842,4.86E-02,0.9513347
1843,4.83E-02,0.9517068
1844,4.79E-02,0.952073
1845,4.75E-02,0.9524322
1846,4.72E-02,0.9527831
1847,4.68E-02,0.9531245
1848,4.65E-02,0.9534553
1849,4.62E-02,0.9537744
1850,4.59E-02,0.9540807
1851,4.56E-02,0.9543732
1852,4.53E-02,0.9546511
1853,4.51E-02,0.9549133
1854,4.48E-02,0.9551592
1855,4.46E-02,0.9553878
1856,4.44E-02,0.9555986
1857,4.42E-02,0.9557909
1858,4.40E-02,0.9559641
1859,4.38E-02,0.9561178
1860,0.0437137,0.9562515
1861,4.36E-02,0.956365
1862,4.35E-02,0.9564579
1863,0.0434352,0.9565301
1864,4.34E-02,0.9565814
1865,4.34E-02,0.9566119
1866,4.33E-02,0.9566216
1867,4.34E-02,0.9566105
1868,0.0433865,0.9565789
1869,0.0434384,0.9565271
1870,4.35E-02,0.9564552
1871,4.36E-02,0.9563639
1872,4.37E-02,0.9562533
1873,4.38E-02,0.9561243
1874,0.0439884,0.9559772
1875,4.42E-02,0.9558128
1876,4.43E-02,0.9556316
1877,4.45E-02,0.9554345
1878,4.47E-02,0.9552222
1879,4.50E-02,0.9549955
1880,4.52E-02,0.9547554
1881,4.55E-02,0.9545028
1882,4.57E-02,0.9542384
1883,4.60E-02,0.9539634
1884,4.63E-02,0.9536786
1885,4.66E-02,0.9533851
1886,4.69E-02,0.9530839
1887,4.72E-02,0.952776
1888,4.75E-02,0.9524625
1889,4.78E-02,0.9521443
1890,4.81E-02,0.9518226
1891,4.85E-02,0.9514983
1892,4.88E-02,0.9511725
1893,4.91E-02,0.9508463
1894,4.94E-02,0.9505206
1895,4.98E-02,0.9501964
1896,5.01E-02,0.9498748
1897,5.04E-02,0.9495566
1898,5.07E-02,0.9492429
1899,5.10E-02,0.9489345
1900,5.13E-02,0.9486323
1901,5.16E-02,0.9483368
1902,5.19E-02,0.9480492
1903,5.22E-02,0.9477705
1904,5.25E-02,0.9475012
1905,5.27E-02,0.9472421
1906,5.30E-02,0.946994
1907,0.0532095,0.9467574
1908,5.34E-02,0.9465328
1909,5.36E-02,0.9463211
1910,5.38E-02,0.9461224
1911,5.40E-02,0.9459375
1912,5.42E-02,0.9457665
1913,0.054357,0.9456101
1914,5.45E-02,0.9454684
1915,5.46E-02,0.9453416
1916,5.47E-02,0.9452303
1917,5.48E-02,0.9451343
1918,5.49E-02,0.9450539
1919,5.50E-02,0.9449893
1920,5.50E-02,0.9449403
1921,5.51E-02,0.9449066
1922,5.51E-02,0.9448884
1923,5.51E-02,0.9448858
1924,5.51E-02,0.9448985
1925,5.50E-02,0.9449264
1926,5.50E-02,0.9449694
1927,5.49E-02,0.945027
1928,5.49E-02,0.945099
1929,5.48E-02,0.9451852
1930,5.47E-02,0.945285
1931,0.0545693,0.9453982
1932,5.44E-02,0.9455242
1933,5.43E-02,0.9456627
1934,5.42E-02,0.945813
1935,5.40E-02,0.9459746
1936,5.38E-02,0.9461471
1937,5.36E-02,0.9463297
1938,5.34E-02,0.9465219
1939,0.0532445,0.9467231
1940,5.30E-02,0.9469326
1941,5.28E-02,0.9471496
1942,5.26E-02,0.9473736
1943,5.24E-02,0.9476038
1944,5.21E-02,0.9478394
1945,5.19E-02,0.9480798
1946,5.16E-02,0.9483242
1947,0.0513958,0.9485719
1948,5.11E-02,0.9488221
1949,5.09E-02,0.9490741
1950,5.06E-02,0.9493271
1951,5.04E-02,0.9495804
1952,5.01E-02,0.9498332
1953,4.99E-02,0.9500847
1954,4.96E-02,0.9503344
1955,4.94E-02,0.9505814
1956,0.0491427,0.9508251
1957,4.89E-02,0.9510648
1958,4.87E-02,0.9512997
1959,4.84E-02,0.9515293
1960,4.82E-02,0.951753
1961,4.80E-02,0.9519709
1962,4.78E-02,0.9521815
1963,4.76E-02,0.9523844
1964,4.74E-02,0.952579
1965,4.72E-02,0.9527648
1966,4.70E-02,0.9529414
1967,4.69E-02,0.9531083
1968,4.67E-02,0.9532651
1969,4.66E-02,0.9534114
1970,4.64E-02,0.9535469
1971,4.63E-02,0.9536731
1972,0.0461802,0.9537878
1973,4.61E-02,0.953891
1974,4.60E-02,0.9539823
1975,4.59E-02,0.9540617
1976,4.58E-02,0.954129
1977,4.58E-02,0.9541843
1978,4.57E-02,0.9542273
1979,4.57E-02,0.9542581
1980,4.57E-02,0.9542768
1981,4.57E-02,0.9542832
1982,4.57E-02,0.9542778
1983,4.57E-02,0.9542605
1984,4.57E-02,0.9542316
1985,4.58E-02,0.9541913
1986,4.58E-02,0.9541399
1987,0.0458908,0.9540775
1988,4.60E-02,0.9540045
1989,4.60E-02,0.9539213
1990,4.61E-02,0.9538281
1991,4.62E-02,0.9537253
1992,4.64E-02,0.9536134
1993,4.65E-02,0.9534927
1994,4.66E-02,0.9533637
1995,4.67E-02,0.9532269
1996,4.69E-02,0.9530827
1997,4.70E-02,0.9529316
1998,4.72E-02,0.9527742
1999,4.74E-02,0.9526109
2000,4.75E-02,0.9524423
2001,4.77E-02,0.952251
2002,0.0478822,0.9520553
2003,4.81E-02,0.951856
2004,4.83E-02,0.9516535
2005,0.0484424,0.9514486
2006,4.86E-02,0.9512418
2007,4.88E-02,0.9510338
2008,4.90E-02,0.950825
2009,4.92E-02,0.9506163
2010,4.94E-02,0.9504082
2011,4.96E-02,0.9502012
2012,4.98E-02,0.9499959
2013,5.00E-02,0.9497929
2014,5.02E-02,0.9495927
2015,5.03E-02,0.949396
2016,5.05E-02,0.9492032
2017,5.07E-02,0.9490148
2018,5.09E-02,0.9488314
2019,5.10E-02,0.9486535
2020,5.12E-02,0.9484814
2021,5.13E-02,0.9483156
2022,5.15E-02,0.9481565
2023,5.16E-02,0.9480046
2024,5.17E-02,0.9478602
2025,5.19E-02,0.9477236
2026,5.20E-02,0.9475952
2027,5.21E-02,0.9474753
2028,5.22E-02,0.9473642
2029,5.23E-02,0.947262
2030,5.23E-02,0.9471691
2031,5.24E-02,0.9470856
2032,5.25E-02,0.9470117
2033,5.25E-02,0.9469475
2034,5.26E-02,0.9468932
2035,5.26E-02,0.9468489
2036,5.26E-02,0.9468145
2037,5.26E-02,0.9467903
2038,5.26E-02,0.946776
2039,5.26E-02,0.9467719
2040,5.26E-02,0.9467777
2041,5.26E-02,0.9467935
2042,5.25E-02,0.9468191
2043,5.25E-02,0.9468545
2044,5.24E-02,0.9468995
2045,5.23E-02,0.9469538
2046,5.23E-02,0.9470174
2047,5.22E-02,0.9470901
2048,5.21E-02,0.9471715
2049,0.0519707,0.9472615
2050,5.19E-02,0.9473596
2051,5.17E-02,0.9474658
2052,5.16E-02,0.9475795
2053,5.15E-02,0.9477006
2054,5.13E-02,0.9478286
2055,5.12E-02,0.9479631
2056,5.10E-02,0.9481038
2057,0.0508644,0.9482504
2058,5.07E-02,0.9484022
2059,5.05E-02,0.9485576
2060,5.04E-02,0.9487174
2061,0.050175,0.9488811
2062,5.00E-02,0.9490485
2063,4.98E-02,0.9492189
2064,4.96E-02,0.9493918
2065,4.94E-02,0.949567
2066,4.92E-02,0.9497437
2067,4.90E-02,0.9499215
2068,0.0488538,0.9501001
2069,4.87E-02,0.9502788
2070,4.85E-02,0.9504571
2071,4.83E-02,0.9506347
2072,4.81E-02,0.950811
2073,4.79E-02,0.9509855
2074,4.77E-02,0.9511578
2075,4.75E-02,0.9513274
2076,4.73E-02,0.9514939
2077,4.72E-02,0.9516567
2078,4.70E-02,0.9518155
2079,4.68E-02,0.9519699
2080,0.0466603,0.9521193
2081,4.65E-02,0.9522635
2082,4.63E-02,0.9524021
2083,4.62E-02,0.9525346
2084,4.61E-02,0.9526607
2085,4.59E-02,0.9527801
2086,0.0458009,0.9528925
2087,4.57E-02,0.9529976
2088,4.56E-02,0.953095
2089,4.55E-02,0.9531846
2090,4.54E-02,0.9532661
2091,4.53E-02,0.9533393
2092,4.52E-02,0.9534039
2093,4.51E-02,0.95346
2094,4.51E-02,0.9535071
2095,4.50E-02,0.9535453
2096,4.50E-02,0.9535745
2097,4.49E-02,0.9535945
2098,4.49E-02,0.9536053
2099,4.49E-02,0.9536068
2100,0.0448968,0.9535992
2101,4.49E-02,0.9535822
2102,4.49E-02,0.9535561
2103,4.49E-02,0.9535208
2104,4.50E-02,0.9534764
2105,4.50E-02,0.9534231
2106,4.51E-02,0.9533609
2107,4.51E-02,0.95329
2108,4.52E-02,0.9532105
2109,0.0452499,0.9531226
2110,4.53E-02,0.9530265
2111,4.54E-02,0.9529225
2112,0.0455213,0.9528107
2113,4.56E-02,0.9526914
2114,4.57E-02,0.9525649
2115,4.59E-02,0.9524314
2116,4.60E-02,0.9522913
2117,4.61E-02,0.9521448
2118,4.63E-02,0.9519923
2119,4.64E-02,0.951834
2120,4.66E-02,0.9516704
2121,4.67E-02,0.9515017
2122,4.69E-02,0.9513284
2123,4.70E-02,0.9511508
2124,4.72E-02,0.9509692
2125,4.74E-02,0.9507841
2126,0.0475514,0.9505958
2127,4.77E-02,0.9504047
2128,4.79E-02,0.9502112
2129,4.81E-02,0.9500156
2130,4.83E-02,0.9498185
2131,4.85E-02,0.9496201
2132,4.86E-02,0.9494208
2133,0.0488359,0.9492211
2134,4.90E-02,0.9490213
2135,4.92E-02,0.9488218
2136,4.94E-02,0.948623
2137,0.0495807,0.9484252
2138,4.98E-02,0.9482289
2139,4.99E-02,0.9480343
2140,5.01E-02,0.9478419
2141,0.0503031,0.947652
2142,5.05E-02,0.9474649
2143,5.06E-02,0.947281
2144,5.08E-02,0.9471006
2145,5.10E-02,0.9469239
2146,5.11E-02,0.9467514
2147,5.13E-02,0.9465833
2148,5.14E-02,0.9464198
2149,5.16E-02,0.9462612
2150,5.17E-02,0.9461079
2151,0.0518688,0.94596
2152,5.20E-02,0.9458178
2153,5.21E-02,0.9456815
2154,5.22E-02,0.9455517
2155,0.0523501,0.9454283
2156,5.25E-02,0.9453112
2157,5.26E-02,0.9452009
2158,5.26E-02,0.9450973
2159,5.27E-02,0.9450007
2160,5.28E-02,0.9449112
2161,5.29E-02,0.9448287
2162,5.29E-02,0.9447536
2163,5.30E-02,0.9446858
2164,5.30E-02,0.9446254
2165,5.31E-02,0.9445725
2166,0.053112,0.9445271
2167,5.31E-02,0.9444892
2168,5.32E-02,0.9444588
2169,0.0531649,0.944436
2170,5.32E-02,0.9444207
2171,5.32E-02,0.9444128
2172,0.0531502,0.9444124
2173,5.31E-02,0.9444194
2174,5.31E-02,0.9444336
2175,5.31E-02,0.944455
2176,5.30E-02,0.9444835
2177,5.30E-02,0.944519
2178,5.29E-02,0.9445614
2179,5.29E-02,0.9446105
2180,5.28E-02,0.9446661
2181,5.27E-02,0.9447281
2182,5.26E-02,0.9447963
2183,5.26E-02,0.9448707
2184,5.25E-02,0.9449508
2185,5.24E-02,0.9450365
2186,5.23E-02,0.9451276
2187,5.21E-02,0.9452239
2188,5.20E-02,0.9453252
2189,5.19E-02,0.9454312
2190,5.18E-02,0.9455416
2191,5.17E-02,0.9456562
2192,5.15E-02,0.9457748
2193,5.14E-02,0.9458969
2194,5.13E-02,0.9460225
2195,5.11E-02,0.9461511
2196,0.0509694,0.9462825
2197,5.08E-02,0.9464164
2198,5.07E-02,0.9465525
2199,5.05E-02,0.9466905
2200,5.04E-02,0.9468301
2201,5.02E-02,0.946971
2202,5.01E-02,0.9471128
2203,4.99E-02,0.9472553
2204,4.97E-02,0.9473982
2205,4.96E-02,0.9475412
2206,4.94E-02,0.9476839
2207,4.93E-02,0.947826
2208,4.91E-02,0.9479672
2209,4.90E-02,0.9481074
2210,4.88E-02,0.9482461
2211,4.87E-02,0.948383
2212,4.85E-02,0.9485179
2213,4.84E-02,0.9486505
2214,4.82E-02,0.9487805
2215,4.81E-02,0.9489077
2216,4.80E-02,0.9490317
2217,0.0478266,0.9491524
2218,4.77E-02,0.9492695
2219,4.76E-02,0.9493828
2220,4.74E-02,0.9494919
2221,4.73E-02,0.9495968
2222,4.72E-02,0.9496973
2223,4.71E-02,0.949793
2224,4.70E-02,0.9498839
2225,4.69E-02,0.9499696
2226,4.68E-02,0.9500502
2227,4.67E-02,0.9501255
2228,4.66E-02,0.9501953
2229,4.66E-02,0.9502594
2230,4.65E-02,0.9503177
2231,0.0464319,0.9503703
2232,4.64E-02,0.9504169
2233,0.04632,0.9504575
2234,4.63E-02,0.9504921
2235,0.0462325,0.9505205
2236,4.62E-02,0.9505427
2237,4.62E-02,0.9505588
2238,4.61E-02,0.9505688
2239,4.61E-02,0.9505725
2240,4.61E-02,0.95057
2241,4.61E-02,0.9505615
2242,0.0461217,0.9505468
2243,4.61E-02,0.9505261
2244,4.61E-02,0.9504994
2245,4.62E-02,0.9504668
2246,4.62E-02,0.9504284
2247,4.62E-02,0.9503842
2248,4.63E-02,0.9503344
2249,4.63E-02,0.9502792
2250,0.046356,0.9502186
2251,4.64E-02,0.9501528
2252,4.65E-02,0.9500819
2253,4.65E-02,0.9500061
2254,4.66E-02,0.9499256
2255,4.67E-02,0.9498405
2256,4.68E-02,0.9497511
2257,4.68E-02,0.9496574
2258,4.69E-02,0.9495597
2259,4.70E-02,0.9494584
2260,4.71E-02,0.9493533
2261,4.72E-02,0.949245
2262,4.73E-02,0.9491335
2263,4.74E-02,0.949019
2264,4.75E-02,0.9489018
2265,0.0476233,0.9487823
2266,4.77E-02,0.9486604
2267,4.78E-02,0.9485366
2268,0.0479617,0.9484109
2269,4.81E-02,0.9482838
2270,4.82E-02,0.9481554
2271,0.0483141,0.9480259
2272,4.84E-02,0.9478956
2273,4.86E-02,0.9477647
2274,4.87E-02,0.9476335
2275,4.88E-02,0.9475022
2276,4.89E-02,0.947371
2277,4.90E-02,0.9472401
2278,4.92E-02,0.9471099
2279,4.93E-02,0.9469804
2280,4.94E-02,0.946852
2281,4.95E-02,0.9467247
2282,4.96E-02,0.946599
2283,4.97E-02,0.9464749
2284,4.98E-02,0.9463527
2285,5.00E-02,0.9462324
2286,5.01E-02,0.9461145
2287,5.02E-02,0.945999
2288,5.03E-02,0.9458861
2289,5.04E-02,0.945776
2290,5.05E-02,0.9456688
2291,5.06E-02,0.9455647
2292,0.0506512,0.945464
2293,5.07E-02,0.9453665
2294,5.08E-02,0.9452727
2295,5.09E-02,0.9451825
2296,5.10E-02,0.9450961
2297,0.0510481,0.9450136
2298,5.11E-02,0.9449351
2299,5.12E-02,0.9448608
2300,5.12E-02,0.9447907
2301,5.13E-02,0.9447249
2302,5.13E-02,0.9446634
2303,5.14E-02,0.9446064
2304,5.14E-02,0.9445538
2305,5.15E-02,0.9445058
2306,5.15E-02,0.9444624
2307,0.0515305,0.9444236
2308,5.16E-02,0.9443895
2309,5.16E-02,0.94436
2310,5.16E-02,0.9443351
2311,5.16E-02,0.944315
2312,5.16E-02,0.9442995
2313,5.16E-02,0.9442886
2314,0.0515954,0.9442824
2315,5.16E-02,0.9442807
2316,5.16E-02,0.9442837
2317,5.16E-02,0.9442911
2318,5.15E-02,0.9443029
2319,5.15E-02,0.9443192
2320,5.15E-02,0.9443398
2321,5.14E-02,0.9443645
2322,0.0513959,0.9443935
2323,5.14E-02,0.9444265
2324,5.13E-02,0.9444635
2325,5.13E-02,0.9445043
2326,5.12E-02,0.944549
2327,0.0511364,0.9445972
2328,5.11E-02,0.9446489
2329,0.0510071,0.9447041
2330,0.0509375,0.9447623
2331,0.0508648,0.9448238
2332,5.08E-02,0.9448882
2333,5.07E-02,0.9449553
2334,5.06E-02,0.9450252
2335,5.05E-02,0.9450974
2336,5.05E-02,0.9451721
2337,5.04E-02,0.9452488
2338,5.03E-02,0.9453275
2339,5.02E-02,0.945408
2340,5.01E-02,0.9454901
2341,5.00E-02,0.9455736
2342,4.99E-02,0.9456584
2343,4.98E-02,0.9457443
2344,4.97E-02,0.9458309
2345,4.96E-02,0.9459183
2346,4.95E-02,0.9460061
2347,4.94E-02,0.9460942
2348,4.93E-02,0.9461824
2349,4.92E-02,0.9462705
2350,4.91E-02,0.9463583
2351,4.90E-02,0.9464456
2352,4.89E-02,0.9465322
2353,4.88E-02,0.946618
2354,4.87E-02,0.9467026
2355,4.86E-02,0.946786
2356,0.048537,0.9468679
2357,0.0484454,0.9469483
2358,4.84E-02,0.9470268
2359,4.83E-02,0.9471033
2360,4.82E-02,0.9471776
2361,4.81E-02,0.9472497
2362,4.80E-02,0.9473192
2363,4.79E-02,0.9473861
2364,4.79E-02,0.9474501
2365,4.78E-02,0.9475112
2366,4.77E-02,0.9475691
2367,4.77E-02,0.9476238
2368,4.76E-02,0.9476752
2369,4.75E-02,0.947723
2370,4.75E-02,0.9477673
2371,4.74E-02,0.9478077
2372,4.74E-02,0.9478443
2373,4.73E-02,0.947877
2374,4.73E-02,0.9479057
2375,4.73E-02,0.9479303
2376,4.72E-02,0.9479507
2377,4.72E-02,0.9479668
2378,4.72E-02,0.9479786
2379,4.72E-02,0.9479861
2380,4.72E-02,0.9479892
2381,4.71E-02,0.947988
2382,4.71E-02,0.9479823
2383,4.71E-02,0.9479721
2384,4.71E-02,0.9479576
2385,4.72E-02,0.9479386
2386,4.72E-02,0.9479151
2387,4.72E-02,0.9478874
2388,4.72E-02,0.9478552
2389,4.72E-02,0.9478188
2390,4.73E-02,0.9477782
2391,4.73E-02,0.9477333
2392,4.73E-02,0.9476843
2393,4.74E-02,0.9476314
2394,4.74E-02,0.9475745
2395,4.75E-02,0.9475138
2396,4.75E-02,0.9474493
2397,4.76E-02,0.9473812
2398,4.76E-02,0.9473096
2399,4.77E-02,0.9472347
2400,4.78E-02,0.9471565
2401,4.79E-02,0.9470753
2402,4.79E-02,0.9469911
2403,4.80E-02,0.9469042
2404,4.81E-02,0.9468147
2405,4.82E-02,0.9467227
2406,4.83E-02,0.9466285
2407,4.83E-02,0.9465321
2408,4.84E-02,0.9464339
2409,4.85E-02,0.9463339
2410,4.86E-02,0.9462324
2411,4.87E-02,0.9461296
2412,4.88E-02,0.9460256
2413,4.89E-02,0.9459207
2414,4.90E-02,0.9458151
2415,4.91E-02,0.9457089
2416,4.92E-02,0.9456023
2417,4.93E-02,0.9454957
2418,4.94E-02,0.945389
2419,4.95E-02,0.9452828
2420,4.96E-02,0.9451769
2421,4.97E-02,0.9450717
2422,4.98E-02,0.9449674
2423,4.99E-02,0.9448642
2424,5.00E-02,0.9447622
2425,5.00E-02,0.9446617
2426,5.01E-02,0.9445628
2427,5.02E-02,0.9444658
2428,5.03E-02,0.9443707
2429,5.04E-02,0.9442778
2430,5.05E-02,0.9441873
2431,5.05E-02,0.9440994
2432,0.0506236,0.944014
2433,5.07E-02,0.9439316
2434,5.08E-02,0.9438521
2435,5.08E-02,0.9437757
2436,0.0508974,0.9437025
2437,5.10E-02,0.9436327
2438,5.10E-02,0.9435668
2439,5.11E-02,0.9435045
2440,5.11E-02,0.9434459
2441,5.12E-02,0.943391
2442,5.12E-02,0.9433401
2443,5.12E-02,0.943293
2444,5.13E-02,0.9432498
2445,5.13E-02,0.9432108
2446,5.13E-02,0.9431758
2447,5.13E-02,0.9431449
2448,5.14E-02,0.9431181
2449,5.14E-02,0.9430954
2450,5.14E-02,0.9430769
2451,5.14E-02,0.9430625
2452,5.14E-02,0.9430522
2453,5.14E-02,0.9430459
2454,5.14E-02,0.9430437
2455,5.14E-02,0.9430454
2456,5.14E-02,0.9430509
2457,5.13E-02,0.9430603
2458,5.13E-02,0.9430733
2459,5.13E-02,0.94309
2460,5.12E-02,0.94311
2461,5.12E-02,0.9431334
2462,5.12E-02,0.94316
2463,5.11E-02,0.9431896
2464,5.11E-02,0.943222
2465,5.10E-02,0.9432572
2466,5.10E-02,0.9432948
2467,5.09E-02,0.9433346
2468,5.09E-02,0.9433765
2469,5.08E-02,0.9434202
2470,5.08E-02,0.9434654
2471,5.07E-02,0.9435118
2472,5.07E-02,0.9435594
2473,5.06E-02,0.9436076
2474,5.05E-02,0.9436563
2475,5.05E-02,0.943705
2476,5.04E-02,0.9437535
2477,0.0503656,0.9438015
2478,5.03E-02,0.9438486
2479,5.02E-02,0.9438944
2480,5.02E-02,0.9439386
2481,5.01E-02,0.9439806
2482,5.01E-02,0.9440203
2483,5.00E-02,0.9440571
2484,5.00E-02,0.9440906
2485,4.99E-02,0.9441204
2486,0.0499117,0.944146
2487,4.99E-02,0.944167
2488,0.0498499,0.9441829
2489,4.98E-02,0.9441931
2490,0.0498103,0.9441974
2491,4.98E-02,0.9441949
2492,4.98E-02,0.9441854
2493,4.98E-02,0.9441682
2494,0.049814,0.9441429
2495,4.98E-02,0.9441088
2496,0.0498659,0.9440654
2497,4.99E-02,0.9440121
2498,5.00E-02,0.9439484
2499,0.050019,0.9438737
2500,5.01E-02,0.9437874
