Preliminary design data,,
1901,,
Wavelength (nm),%R,%T
600,0.7416104,0.258259
601,0.8248595,0.1750278
602,0.8405596,0.1592795
603,0.6364185,0.3623079
604,0.7325912,0.2670156
605,0.8629983,0.1367421
606,0.965009,3.49E-02
607,0.9876697,1.23E-02
608,0.9941961,5.77E-03
609,0.9966254,3.35E-03
610,0.9976826,2.29E-03
611,0.998166,1.81E-03
612,0.9983475,1.63E-03
613,0.998311,1.67E-03
614,0.9980324,1.95E-03
615,0.9973481,2.63E-03
616,0.9957311,4.24E-03
617,0.9912251,8.74E-03
618,0.9728919,2.71E-02
619,0.8033832,0.1964358
620,0.8143241,0.1855327
621,0.941644,5.83E-02
622,0.7342553,0.2650304
623,0.9581593,4.18E-02
624,0.9533945,0.0464967
625,0.928898,7.09E-02
626,0.8694041,0.1303128
627,0.7560911,0.243506
628,0.6200584,0.3796239
629,0.4978161,0.5019423
630,0.4781618,0.5215703
631,0.7829623,0.2168937
632,0.8936609,0.1062444
633,0.9295641,7.04E-02
634,0.9366781,6.32E-02
635,0.9176365,8.23E-02
636,0.8156478,0.1840915
637,0.6106278,0.3880295
638,0.9380401,0.0617874
639,0.9816689,1.83E-02
640,0.9916603,8.30E-03
641,0.9950829,4.89E-03
642,0.9965235,3.45E-03
643,0.9971532,2.83E-03
644,0.9973439,2.64E-03
645,0.9971904,2.79E-03
646,0.9966136,3.37E-03
647,0.995272,4.71E-03
648,0.9920927,7.89E-03
649,0.9831848,1.68E-02
650,0.9527313,0.0472415
651,0.9110538,8.89E-02
652,0.9498253,5.01E-02
653,0.9610145,3.90E-02
654,0.9768496,2.31E-02
655,0.9784454,0.0215296
656,0.9740127,2.60E-02
657,0.9601334,3.98E-02
658,0.9184582,0.0814672
659,0.7645457,0.2352801
660,0.5240341,0.4756724
661,0.7473248,0.2525223
662,0.8153592,0.184443
663,0.6599814,0.3394695
664,0.8384103,0.1614909
665,0.7931994,0.2067129
666,0.6404908,0.3593798
667,0.4678513,0.5319524
668,0.3041655,0.6953625
669,0.7733941,0.2264947
670,0.8695065,0.1304306
671,0.8954555,0.1044904
672,0.8955173,0.1044256
673,0.8727503,0.1271793
674,0.8112509,0.1886476
675,0.6697798,0.3300494
676,0.4763597,0.5233501
677,0.2930723,0.7061785
678,0.6726585,0.3270703
679,0.8287332,0.1711487
680,0.8780004,0.121913
681,0.897222,0.1026987
682,0.9024706,9.74E-02
683,0.8986388,0.1012697
684,0.8871392,0.112753
685,0.8681114,0.1317566
686,0.8416387,0.1581952
687,0.8092369,0.1905513
688,0.7774161,0.2223237
689,0.7622126,0.2375061
690,0.7736473,0.2260986
691,0.796634,0.2031567
692,0.8149129,0.1849115
693,0.8224067,0.1774339
694,0.8163534,0.183484
695,0.7927055,0.2071021
696,0.7441207,0.2556032
697,0.6573265,0.3421523
698,0.6622119,0.3371411
699,0.8094487,0.1902458
700,0.888454,0.1113712
701,0.9302115,6.97E-02
702,0.9525294,4.74E-02
703,0.964792,3.51E-02
704,0.9716578,2.83E-02
705,0.9753719,2.46E-02
706,0.976994,2.30E-02
707,0.9769471,2.30E-02
708,0.9752215,2.47E-02
709,0.9713631,2.86E-02
710,0.964227,3.57E-02
711,0.9512735,4.87E-02
712,0.926707,7.32E-02
713,0.8765845,0.1233114
714,0.7693945,0.2304602
715,0.5844855,0.4153079
716,0.5064382,0.4933178
717,0.5887339,0.4109963
718,0.520153,0.4794699
719,0.4053233,0.5942155
720,0.6971616,0.3025239
721,0.8397678,0.16
722,0.8944581,0.1053592
723,0.9208757,7.90E-02
724,0.9364991,6.34E-02
725,0.9465384,5.34E-02
726,0.9527488,4.72E-02
727,0.9557664,4.42E-02
728,0.9555987,0.0443329
729,0.951455,4.85E-02
730,0.9409066,5.90E-02
731,0.9171101,8.28E-02
732,0.858445,0.1414613
733,0.6935157,0.3063118
734,0.5018138,0.4979087
735,0.7310718,0.2687214
736,0.7576095,0.2420523
737,0.9391744,6.08E-02
738,0.9650642,3.49E-02
739,0.9753801,2.46E-02
740,0.9802734,1.97E-02
741,0.982483,1.75E-02
742,0.9829526,1.70E-02
743,0.9818642,1.81E-02
744,0.978828,2.11E-02
745,0.9725819,2.74E-02
746,0.9597991,4.02E-02
747,0.9309362,6.90E-02
748,0.854985,0.1449471
749,0.6630744,0.3367949
750,0.6132802,0.3865794
751,0.7478898,0.251988
752,0.6325165,0.3671842
753,0.8767305,0.1232125
754,0.9079751,9.20E-02
755,0.9089246,0.0910424
756,0.8892307,0.1107322
757,0.8335596,0.1663885
758,0.6936183,0.3062861
759,0.4715474,0.5282366
760,0.7446514,0.2552434
761,0.8929299,0.1070185
762,0.9434196,5.65E-02
763,0.9642738,0.0356986
764,0.974201,0.0257744
765,0.9792746,2.07E-02
766,0.9817826,1.82E-02
767,0.9826448,1.73E-02
768,0.9821615,1.78E-02
769,0.980229,1.97E-02
770,0.9762929,2.37E-02
771,0.9690048,0.0309571
772,0.9552029,4.47E-02
773,0.9268573,0.0730745
774,0.8612779,0.1386119
775,0.6955619,0.3042218
776,0.3061811,0.6931738
777,0.4664201,0.5331643
778,0.7296461,0.2701884
779,0.8220175,0.1778676
780,0.8598482,0.1400453
781,0.8726507,0.1272278
782,0.8691039,0.1307308
783,0.8495738,0.1501631
784,0.8217062,0.1779013
785,0.8167131,0.1829459
786,0.8177279,0.1820246
787,0.8264387,0.1733638
788,0.850136,0.1497053
789,0.8798079,0.1200683
790,0.9059925,9.39E-02
791,0.9258681,7.41E-02
792,0.9402155,5.97E-02
793,0.9505313,4.94E-02
794,0.9580522,4.19E-02
795,0.9636259,0.0363363
796,0.9677961,3.22E-02
797,0.9709018,2.91E-02
798,0.9731514,2.68E-02
799,0.9746674,2.53E-02
800,0.975511,0.0244626
801,0.9756931,2.43E-02
802,0.9751738,2.48E-02
803,0.9738538,2.61E-02
804,0.9715618,2.84E-02
805,0.9680361,3.19E-02
806,0.9629126,3.71E-02
807,0.9557485,0.0442223
808,0.9461556,5.38E-02
809,0.9341452,6.58E-02
810,0.920651,7.93E-02
811,0.9076682,9.23E-02
812,0.8971803,0.1027761
813,0.889653,0.1102994
814,0.884121,0.1158261
815,0.8789536,0.1209863
816,0.8715454,0.1283838
817,0.858084,0.1418277
818,0.8328763,0.167004
819,0.7845737,0.2152417
820,0.6895748,0.3100892
821,0.6158079,0.3837228
822,0.6841921,0.3154974
823,0.7373275,0.2624581
824,0.7895634,0.2102773
825,0.8369505,0.1629292
826,0.8719901,0.1279164
827,0.8950821,0.1048422
828,0.9090754,9.09E-02
829,0.9162933,8.36E-02
830,0.9179641,8.20E-02
831,0.9142246,8.57E-02
832,0.9040006,0.0959481
833,0.8845068,0.1154396
834,0.8502991,0.1496419
835,0.7932575,0.2066737
836,0.7135077,0.2864093
837,0.6601357,0.3397707
838,0.6987882,0.3011221
839,0.7597544,0.2401592
840,0.7726021,0.2272984
841,0.8580666,0.1418623
842,0.9131932,8.68E-02
843,0.9377246,6.22E-02
844,0.950542,4.94E-02
845,0.9578059,4.21E-02
846,0.9618741,3.81E-02
847,0.9637789,3.62E-02
848,0.9639562,0.0359922
849,0.9624889,3.75E-02
850,0.9591635,4.08E-02
851,0.953409,4.65E-02
852,0.944098,5.58E-02
853,0.9291109,7.08E-02
854,0.9044647,9.55E-02
855,0.8629007,0.1370249
856,0.793973,0.2059403
857,0.6998847,0.3000122
858,0.6429595,0.356928
859,0.6796439,0.3202488
860,0.7158425,0.2840436
861,0.6688731,0.330964
862,0.8068184,0.193084
863,0.8860384,0.1138945
864,0.9172391,8.27E-02
865,0.9327123,6.72E-02
866,0.9411435,5.88E-02
867,0.9455435,5.44E-02
868,0.9471377,5.28E-02
869,0.9463835,5.36E-02
870,0.9432794,5.67E-02
871,0.9374256,6.25E-02
872,0.9279398,7.20E-02
873,0.9132318,8.67E-02
874,0.8906224,0.1093277
875,0.8559784,0.1439666
876,0.8046178,0.195319
877,0.738278,0.2616475
878,0.6823816,0.3175335
879,0.6747921,0.3251178
880,0.6834082,0.3164871
881,0.6732748,0.326588
882,0.8115464,0.1883768
883,0.8852413,0.1147076
884,0.9199393,8.00E-02
885,0.9399076,6.01E-02
886,0.9527472,4.72E-02
887,0.9615606,3.84E-02
888,0.9678802,3.21E-02
889,0.9725536,2.74E-02
890,0.9760846,2.39E-02
891,0.9787883,2.12E-02
892,0.980869,1.91E-02
893,0.9824626,1.75E-02
894,0.9836601,1.63E-02
895,0.9845222,1.55E-02
896,0.9850866,1.49E-02
897,0.9853722,1.46E-02
898,0.9853811,1.46E-02
899,0.9850969,1.49E-02
900,0.9844813,1.55E-02
901,0.9834687,1.65E-02
902,0.9819476,1.80E-02
903,0.9797406,2.02E-02
904,0.9765591,2.34E-02
905,0.9719212,2.80E-02
906,0.9649873,3.50E-02
907,0.9542169,4.57E-02
908,0.9366032,0.0633527
909,0.9058937,9.41E-02
910,0.8486256,0.1513014
911,0.7396915,0.2602014
912,0.5789828,0.4208622
913,0.5368097,0.4630269
914,0.6714805,0.3283993
915,0.7884765,0.2114361
916,0.84591,0.1540118
917,0.8376497,0.1622394
918,0.5898395,0.409767
919,0.82792,0.1719477
920,0.9137785,8.62E-02
921,0.9365813,6.34E-02
922,0.9461471,5.38E-02
923,0.9507426,4.92E-02
924,0.9526713,4.73E-02
925,0.9527633,4.72E-02
926,0.9513186,4.86E-02
927,0.9483758,5.16E-02
928,0.9437963,5.62E-02
929,0.9372808,6.27E-02
930,0.9283536,7.16E-02
931,0.9163259,8.36E-02
932,0.9002486,9.97E-02
933,0.8788773,0.1210581
934,0.8506981,0.1492309
935,0.8141196,0.1858017
936,0.7679988,0.2319139
937,0.7126293,0.2872741
938,0.6509546,0.3489396
939,0.5889608,0.4109253
940,0.5338324,0.4660472
941,0.4901155,0.5097592
942,0.4568929,0.5429774
943,0.4280079,0.5718573
944,0.3946929,0.6051649
945,0.3486748,0.6511731
946,0.2861473,0.713689
947,0.2128243,0.787002
948,0.1444042,0.8554173
949,0.0958856,0.9039379
950,7.01E-02,0.9297064
951,6.00E-02,0.9398247
952,5.72E-02,0.9425999
953,5.67E-02,0.9431897
954,5.62E-02,0.9436991
955,5.54E-02,0.9444867
956,5.46E-02,0.9452299
957,5.43E-02,0.9455457
958,5.46E-02,0.9452794
959,5.53E-02,0.9445645
960,5.61E-02,0.943736
961,5.67E-02,0.9431855
962,5.67E-02,0.9432082
963,0.0559397,0.9439263
964,5.46E-02,0.9452603
965,5.29E-02,0.9469599
966,5.12E-02,0.9486738
967,4.98E-02,0.9500393
968,4.91E-02,0.9507681
969,4.92E-02,0.9507107
970,5.00E-02,0.9498852
971,5.14E-02,0.9484653
972,5.31E-02,0.9467356
973,5.48E-02,0.9450261
974,5.62E-02,0.9436456
975,0.0570492,0.9428251
976,5.72E-02,0.9426822
977,5.67E-02,0.9432075
978,5.56E-02,0.9442731
979,5.42E-02,0.9456605
980,5.28E-02,0.9471031
981,5.15E-02,0.9483348
982,5.07E-02,0.9491412
983,5.05E-02,0.9493943
984,5.08E-02,0.9490741
985,5.16E-02,0.9482653
986,5.27E-02,0.9471381
987,5.40E-02,0.9459123
988,0.055061,0.9448178
989,5.58E-02,0.9440569
990,0.0561053,0.9437743
991,5.58E-02,0.944037
992,5.51E-02,0.9448276
993,5.38E-02,0.9460484
994,5.23E-02,0.9475372
995,5.08E-02,0.9490929
996,4.94E-02,0.950507
997,4.83E-02,0.9515982
998,4.76E-02,0.9522416
999,0.0474927,0.9523878
1000,4.78E-02,0.9520692
1001,4.85E-02,0.9513916
1002,4.94E-02,0.9505117
1003,5.03E-02,0.9496096
1004,5.10E-02,0.9488598
1005,5.15E-02,0.9484044
1006,5.15E-02,0.9483344
1007,5.12E-02,0.9486768
1008,5.05E-02,0.9493929
1009,4.95E-02,0.950384
1010,4.84E-02,0.9515045
1011,4.73E-02,0.9525837
1012,4.64E-02,0.9534494
1013,4.59E-02,0.9539566
1014,4.59E-02,0.9540089
1015,4.63E-02,0.9535735
1016,4.72E-02,0.9526938
1017,4.84E-02,0.9514763
1018,4.98E-02,0.9500766
1019,5.12E-02,0.9486763
1020,5.24E-02,0.9474578
1021,5.33E-02,0.9465799
1022,0.0537295,0.9461565
1023,5.36E-02,0.9462449
1024,5.30E-02,0.9468383
1025,5.20E-02,0.9478665
1026,5.07E-02,0.9492021
1027,4.92E-02,0.9506766
1028,4.78E-02,0.9520986
1029,0.046607,0.9532793
1030,4.58E-02,0.9540569
1031,4.56E-02,0.9543197
1032,4.59E-02,0.9540218
1033,4.67E-02,0.9531897
1034,4.80E-02,0.9519179
1035,4.95E-02,0.9503549
1036,5.12E-02,0.948682
1037,5.28E-02,0.9470902
1038,5.41E-02,0.9457564
1039,5.51E-02,0.9448234
1040,0.0555037,0.9443853
1041,5.54E-02,0.9444773
1042,5.48E-02,0.9450724
1043,5.38E-02,0.946084
1044,0.0525139,0.9473753
1045,5.11E-02,0.9487725
1046,4.98E-02,0.950085
1047,4.88E-02,0.9511284
1048,4.81E-02,0.9517495
1049,4.80E-02,0.9518462
1050,4.85E-02,0.9513828
1051,4.95E-02,0.9503941
1052,5.09E-02,0.9489805
1053,5.26E-02,0.9472923
1054,5.44E-02,0.9455096
1055,5.61E-02,0.9438191
1056,0.057499,0.9423925
1057,5.85E-02,0.9413677
1058,0.0590548,0.9408371
1059,5.91E-02,0.9408382
1060,5.85E-02,0.9413522
1061,5.76E-02,0.9423018
1062,0.0563244,0.9435675
1063,5.49E-02,0.9449922
1064,5.35E-02,0.9463981
1065,0.052284,0.9476077
1066,5.14E-02,0.9484641
1067,5.10E-02,0.9488534
1068,5.12E-02,0.9487202
1069,5.18E-02,0.9480775
1070,5.29E-02,0.9470055
1071,5.43E-02,0.9456416
1072,5.57E-02,0.9441617
1073,5.71E-02,0.9427571
1074,5.83E-02,0.9416114
1075,5.90E-02,0.9408785
1076,5.92E-02,0.9406662
1077,5.89E-02,0.9410253
1078,5.80E-02,0.9419438
1079,5.65E-02,0.9433474
1080,5.48E-02,0.9451059
1081,0.0528464,0.947047
1082,5.09E-02,0.9489601
1083,4.93E-02,0.9506295
1084,4.80E-02,0.9518573
1085,4.74E-02,0.952481
1086,4.75E-02,0.9524022
1087,4.83E-02,0.9516002
1088,0.0497546,0.9501387
1089,5.17E-02,0.9481601
1090,5.40E-02,0.9458696
1091,5.64E-02,0.9435115
1092,5.86E-02,0.9413404
1093,6.03E-02,0.9395934
1094,6.14E-02,0.9384652
1095,6.18E-02,0.9380882
1096,6.14E-02,0.9385198
1097,6.02E-02,0.9397356
1098,5.83E-02,0.9416304
1099,5.59E-02,0.9440247
1100,5.32E-02,0.9466795
1101,5.06E-02,0.9493099
1102,4.83E-02,0.95164
1103,0.0464865,0.9534072
1104,4.55E-02,0.9544033
1105,4.54E-02,0.9545032
1106,4.62E-02,0.9536837
1107,4.79E-02,0.952029
1108,5.02E-02,0.9497228
1109,5.29E-02,0.9470254
1110,5.57E-02,0.944243
1111,5.82E-02,0.9416917
1112,0.0602323,0.9396628
1113,6.15E-02,0.9383912
1114,6.19E-02,0.9380317
1115,6.13E-02,0.9386411
1116,5.97E-02,0.9401698
1117,5.74E-02,0.9424632
1118,5.46E-02,0.9452721
1119,5.16E-02,0.9482774
1120,4.88E-02,0.9511243
1121,4.64E-02,0.9534697
1122,4.49E-02,0.9550182
1123,4.43E-02,0.9555788
1124,4.48E-02,0.9550908
1125,4.63E-02,0.9536321
1126,4.85E-02,0.9514068
1127,5.12E-02,0.948712
1128,5.40E-02,0.9458905
1129,5.66E-02,0.9432765
1130,5.88E-02,0.9411371
1131,6.03E-02,0.9396253
1132,6.12E-02,0.9387308
1133,6.16E-02,0.9382592
1134,6.20E-02,0.9378427
1135,6.29E-02,0.9370007
1136,6.46E-02,0.9352569
1137,6.76E-02,0.9322985
1138,7.18E-02,0.9281334
1139,7.67E-02,0.923187
1140,8.16E-02,0.9182923
1141,8.53E-02,0.9145925
1142,8.66E-02,0.9133024
1143,8.43E-02,0.9155645
1144,0.0777466,0.922129
1145,6.71E-02,0.93273
1146,5.52E-02,0.944649
1147,4.98E-02,0.9500521
1148,0.0659579,0.9338821
1149,0.1196756,0.8801619
1150,0.2087808,0.7910652
1151,0.3072393,0.6926224
1152,0.3901097,0.6097683
1153,0.4502054,0.5496857
1154,0.4914919,0.5084086
1155,0.5200283,0.4798786
1156,0.540647,0.4592637
1157,0.5567549,0.4431579
1158,0.5708649,0.4290488
1159,0.5850553,0.4148582
1160,0.6011952,0.3987176
1161,0.6209094,0.3790027
1162,0.6453509,0.3545608
1163,0.6748279,0.3250844
1164,0.7085651,0.2913491
1165,0.7448006,0.2551166
1166,0.7812657,0.2186557
1167,0.815821,0.1841055
1168,0.8469335,0.1529984
1169,0.8738326,0.1261047
1170,0.8963987,0.1035439
1171,0.914938,8.50E-02
1172,0.9299672,7.00E-02
1173,0.9420597,5.79E-02
1174,0.951759,4.82E-02
1175,0.9595385,4.04E-02
1176,0.9657915,0.0341737
1177,0.9708356,2.91E-02
1178,0.9749224,2.50E-02
1179,0.9782501,2.17E-02
1180,0.9809734,1.90E-02
1181,0.9832131,1.68E-02
1182,0.9850639,1.49E-02
1183,0.9865998,1.34E-02
1184,0.9878792,1.21E-02
1185,0.9889478,1.10E-02
1186,0.9898419,1.01E-02
1187,0.9905905,9.39E-03
1188,0.9912162,8.77E-03
1189,0.9917375,8.25E-03
1190,0.9921687,7.81E-03
1191,0.9925215,7.46E-03
1192,0.9928046,7.18E-03
1193,0.9930254,6.96E-03
1194,0.9931887,6.80E-03
1195,0.9932985,6.69E-03
1196,0.993357,6.63E-03
1197,0.9933653,6.62E-03
1198,0.9933233,6.66E-03
1199,0.9932297,6.76E-03
1200,0.9930817,6.91E-03
1201,0.9928758,7.11E-03
1202,0.9926062,7.38E-03
1203,0.9922658,7.72E-03
1204,0.9918455,8.14E-03
1205,0.9913343,8.65E-03
1206,0.990719,9.27E-03
1207,0.989984,1.00E-02
1208,0.9891118,1.09E-02
1209,0.988084,1.19E-02
1210,0.9868826,1.31E-02
1211,0.9854939,1.45E-02
1212,0.9839141,1.61E-02
1213,0.9821578,1.78E-02
1214,0.9802686,1.97E-02
1215,0.9783309,0.0216585
1216,0.9764746,2.35E-02
1217,0.9748664,2.51E-02
1218,0.9736808,2.63E-02
1219,0.9730547,2.69E-02
1220,0.9730436,2.69E-02
1221,0.9736044,2.64E-02
1222,0.9746141,2.54E-02
1223,0.9759116,2.41E-02
1224,0.9773408,2.26E-02
1225,0.9787769,2.12E-02
1226,0.9801342,1.99E-02
1227,0.9813621,0.0186292
1228,0.982436,1.76E-02
1229,0.9833482,1.66E-02
1230,0.9841008,1.59E-02
1231,0.9847007,1.53E-02
1232,0.9851561,1.48E-02
1233,0.9854751,1.45E-02
1234,0.9856645,0.0143276
1235,0.9857295,1.43E-02
1236,0.9856728,1.43E-02
1237,0.9854959,1.45E-02
1238,0.9851981,1.48E-02
1239,0.9847777,1.52E-02
1240,0.9842324,1.58E-02
1241,0.9835602,0.0164322
1242,0.9827607,1.72E-02
1243,0.9818373,1.82E-02
1244,0.9807997,1.92E-02
1245,0.9796672,2.03E-02
1246,0.9784721,2.15E-02
1247,0.9772626,2.27E-02
1248,0.976104,2.39E-02
1249,0.975076,2.49E-02
1250,0.974264,2.57E-02
1251,0.9737457,2.62E-02
1252,0.9735734,2.64E-02
1253,0.9737604,2.62E-02
1254,0.9742771,2.57E-02
1255,0.9750597,0.0249327
1256,0.9760257,2.40E-02
1257,0.9770916,0.0229011
1258,0.978184,2.18E-02
1259,0.979246,2.07E-02
1260,0.9802369,1.98E-02
1261,0.9811306,0.0188625
1262,0.9819122,1.81E-02
1263,0.9825745,1.74E-02
1264,0.9831151,1.69E-02
1265,0.9835346,0.0164588
1266,0.9838346,1.62E-02
1267,0.9840173,0.0159761
1268,0.9840841,1.59E-02
1269,0.9840358,1.60E-02
1270,0.9838722,0.0161212
1271,0.9835925,1.64E-02
1272,0.983195,1.68E-02
1273,0.9826786,0.0173148
1274,0.982043,1.80E-02
1275,0.9812905,1.87E-02
1276,0.980428,1.96E-02
1277,0.9794696,2.05E-02
1278,0.9784392,2.16E-02
1279,0.9773737,2.26E-02
1280,0.9763237,2.37E-02
1281,0.9753525,2.46E-02
1282,0.9745288,2.55E-02
1283,0.9739197,2.61E-02
1284,0.9735789,2.64E-02
1285,0.9735376,2.65E-02
1286,0.9737995,2.62E-02
1287,0.97434,0.025653
1288,0.9751114,2.49E-02
1289,0.9760519,2.39E-02
1290,0.9770952,2.29E-02
1291,0.9781796,2.18E-02
1292,0.9792528,2.07E-02
1293,0.9802752,1.97E-02
1294,0.9812188,1.88E-02
1295,0.9820657,1.79E-02
1296,0.9828058,1.72E-02
1297,0.9834346,1.66E-02
1298,0.9839507,1.60E-02
1299,0.9843548,1.56E-02
1300,0.984648,1.53E-02
1301,0.9848315,0.0151624
1302,0.9849053,0.0150885
1303,0.9848687,1.51E-02
1304,0.9847192,1.53E-02
1305,0.9844529,1.55E-02
1306,0.9840643,1.59E-02
1307,0.983547,1.64E-02
1308,0.9828946,1.71E-02
1309,0.9821023,1.79E-02
1310,0.9811708,0.0188226
1311,0.9801111,1.99E-02
1312,0.9789504,2.10E-02
1313,0.9777363,2.23E-02
1314,0.9765307,2.35E-02
1315,0.9753968,2.46E-02
1316,0.974384,2.56E-02
1317,0.9735299,2.65E-02
1318,0.9728722,2.71E-02
1319,0.9724572,2.75E-02
1320,0.9723336,2.77E-02
1321,0.9725357,2.75E-02
1322,0.9730691,2.69E-02
1323,0.9739043,2.61E-02
1324,0.974982,2.50E-02
1325,0.9762262,0.0237668
1326,0.9775579,2.24E-02
1327,0.978907,2.11E-02
1328,0.9802183,1.98E-02
1329,0.9814528,1.85E-02
1330,0.9825865,1.74E-02
1331,0.9836069,1.64E-02
1332,0.9845101,1.55E-02
1333,0.9852976,1.47E-02
1334,0.9859741,1.40E-02
1335,0.986546,1.34E-02
1336,0.9870204,1.30E-02
1337,0.987404,1.26E-02
1338,0.9877032,0.0122904
1339,0.9879237,0.0120699
1340,0.9880703,1.19E-02
1341,0.9881473,1.18E-02
1342,0.988158,1.18E-02
1343,0.9881052,1.19E-02
1344,0.9879911,1.20E-02
1345,0.9878173,1.22E-02
1346,0.9875854,1.24E-02
1347,0.9872963,1.27E-02
1348,0.9869515,1.30E-02
1349,0.9865525,1.34E-02
1350,0.9861018,1.39E-02
1351,0.9856035,1.44E-02
1352,0.9850632,1.49E-02
1353,0.9844895,1.55E-02
1354,0.9838938,1.61E-02
1355,0.9832903,1.67E-02
1356,0.9826961,1.73E-02
1357,0.9821301,1.79E-02
1358,0.9816114,1.84E-02
1359,0.9811574,1.88E-02
1360,0.9807812,0.0192111
1361,0.9804895,1.95E-02
1362,0.9802803,1.97E-02
1363,0.9801412,1.99E-02
1364,0.9800482,1.99E-02
1365,0.9799638,2.00E-02
1366,0.9798384,2.02E-02
1367,0.9796261,0.0203656
1368,0.9793632,2.06E-02
1369,0.9793296,2.07E-02
1370,0.979867,2.01E-02
1371,0.9807245,1.93E-02
1372,0.9814382,1.86E-02
1373,0.9818841,1.81E-02
1374,0.9821071,1.79E-02
1375,0.9821588,1.78E-02
1376,0.9820688,1.79E-02
1377,0.9818503,1.81E-02
1378,0.9815072,0.018484
1379,0.9810378,0.0189533
1380,0.9804378,1.96E-02
1381,0.9797036,0.0202872
1382,0.9788296,2.12E-02
1383,0.977814,2.22E-02
1384,0.976661,2.33E-02
1385,0.9753845,2.46E-02
1386,0.9740133,2.60E-02
1387,0.9725971,2.74E-02
1388,0.9712114,2.88E-02
1389,0.9699596,3.00E-02
1390,0.968967,3.10E-02
1391,0.9683653,3.16E-02
1392,0.9682664,0.0317222
1393,0.9687333,3.13E-02
1394,0.9697581,3.02E-02
1395,0.971262,2.87E-02
1396,0.9731146,2.69E-02
1397,0.975166,2.48E-02
1398,0.977277,2.27E-02
1399,0.9793376,2.07E-02
1400,0.9812729,1.87E-02
1401,0.9830452,1.69E-02
1402,0.9846313,1.54E-02
1403,0.9860304,1.40E-02
1404,0.9872521,1.27E-02
1405,0.9883112,1.17E-02
1406,0.9892246,0.010762
1407,0.9900089,9.98E-03
1408,0.9906797,9.31E-03
1409,0.9912511,8.73E-03
1410,0.9917352,8.25E-03
1411,0.9921423,7.84E-03
1412,0.9924811,7.50E-03
1413,0.9927588,7.22E-03
1414,0.992981,7.00E-03
1415,0.9931524,6.83E-03
1416,0.9932763,6.70E-03
1417,0.993355,6.63E-03
1418,0.9933898,6.59E-03
1419,0.9933813,6.60E-03
1420,0.9933288,6.65E-03
1421,0.9932308,6.75E-03
1422,0.9930845,6.89E-03
1423,0.9928864,7.09E-03
1424,0.9926309,7.34E-03
1425,0.9923115,7.66E-03
1426,0.9919193,8.05E-03
1427,0.9914435,8.52E-03
1428,0.9908704,9.09E-03
1429,0.9901832,9.77E-03
1430,0.9893613,1.06E-02
1431,0.9883802,1.16E-02
1432,0.987211,1.27E-02
1433,0.9858214,1.41E-02
1434,0.9841781,1.57E-02
1435,0.9822518,1.77E-02
1436,0.980028,1.99E-02
1437,0.9775249,2.24E-02
1438,0.9748201,2.51E-02
1439,0.9720812,2.78E-02
1440,0.969584,3.03E-02
1441,0.9676903,0.0321569
1442,0.9667425,3.31E-02
1443,0.9669446,3.29E-02
1444,0.9682598,3.16E-02
1445,0.9704265,0.029433
1446,0.9730791,2.68E-02
1447,0.9758755,2.40E-02
1448,0.9785714,0.0213257
1449,0.9810284,1.89E-02
1450,0.9831904,1.67E-02
1451,0.9850519,1.49E-02
1452,0.9866346,1.33E-02
1453,0.9879706,1.20E-02
1454,0.9890945,1.08E-02
1455,0.9900385,9.91E-03
1456,0.9908308,9.12E-03
1457,0.9914956,8.46E-03
1458,0.9920525,7.90E-03
1459,0.9925178,7.44E-03
1460,0.9929046,7.05E-03
1461,0.9932245,6.74E-03
1462,0.9934847,6.48E-03
1463,0.9936919,6.27E-03
1464,0.993851,6.11E-03
1465,0.993966,5.99E-03
1466,0.9940394,5.92E-03
1467,0.9940726,5.88E-03
1468,0.9940657,5.89E-03
1469,0.994018,5.93E-03
1470,0.9939265,6.02E-03
1471,0.9937863,6.16E-03
1472,0.993589,6.35E-03
1473,0.993319,6.60E-03
1474,0.9929467,6.96E-03
1475,0.9924077,7.46E-03
1476,0.9915388,8.27E-03
1477,0.9898453,9.82E-03
1478,0.9859056,1.34E-02
1479,0.9820265,1.70E-02
1480,0.9854205,1.40E-02
1481,0.9871856,1.25E-02
1482,0.9872617,1.26E-02
1483,0.9866075,1.33E-02
1484,0.9855341,1.43E-02
1485,0.9841385,1.57E-02
1486,0.982453,1.74E-02
1487,0.9804969,1.94E-02
1488,0.978305,2.16E-02
1489,0.9759511,2.39E-02
1490,0.9735673,2.63E-02
1491,0.9713537,2.85E-02
1492,0.9695629,3.03E-02
1493,0.9684485,3.14E-02
1494,0.9681865,3.17E-02
1495,0.9688095,3.10E-02
1496,0.9701948,2.97E-02
1497,0.9721147,2.77E-02
1498,0.9743164,2.56E-02
1499,0.9765816,2.33E-02
1500,0.9787568,2.11E-02
1501,0.9807562,1.91E-02
1502,0.9825318,1.74E-02
1503,0.9840721,1.58E-02
1504,0.9853832,1.45E-02
1505,0.9864778,1.34E-02
1506,0.9873692,0.0125165
1507,0.9880652,1.18E-02
1508,0.9885668,0.0112918
1509,0.988864,1.10E-02
1510,0.9889392,1.09E-02
1511,0.9887859,1.10E-02
1512,0.9884681,1.12E-02
1513,0.9882057,1.15E-02
1514,0.9883209,0.0113355
1515,0.988905,1.08E-02
1516,0.9897033,1.00E-02
1517,0.9904456,9.35E-03
1518,0.9910219,8.81E-03
1519,0.9914297,8.43E-03
1520,0.9916972,8.19E-03
1521,0.9918528,8.05E-03
1522,0.9919182,7.99E-03
1523,0.9919077,8.01E-03
1524,0.9918306,8.09E-03
1525,0.9916921,8.23E-03
1526,0.9914946,8.43E-03
1527,0.9912389,8.69E-03
1528,0.9909241,9.00E-03
1529,0.9905481,9.38E-03
1530,0.9901085,9.82E-03
1531,0.9896023,1.03E-02
1532,0.989027,1.09E-02
1533,0.9883807,1.15E-02
1534,0.9876635,1.23E-02
1535,0.9868784,1.30E-02
1536,0.9860325,1.39E-02
1537,0.9851393,1.48E-02
1538,0.9842193,1.57E-02
1539,0.9833027,1.66E-02
1540,0.9824275,1.75E-02
1541,0.9816416,1.82E-02
1542,0.9809916,1.89E-02
1543,0.9805239,0.0193398
1544,0.9802736,1.96E-02
1545,0.9802589,1.96E-02
1546,0.9804766,0.0193764
1547,0.9809023,1.89E-02
1548,0.9814957,0.0183516
1549,0.9822066,1.76E-02
1550,0.9829829,1.69E-02
1551,0.9837763,1.61E-02
1552,0.984547,0.0152767
1553,0.9852651,1.45E-02
1554,0.9859147,1.39E-02
1555,0.9864942,1.33E-02
1556,0.9870203,1.27E-02
1557,0.9875262,1.22E-02
1558,0.9880489,1.17E-02
1559,0.9886118,1.11E-02
1560,0.9892101,1.06E-02
1561,0.9898176,0.0099759
1562,0.990399,9.42E-03
1563,0.9909301,8.91E-03
1564,0.9913983,8.46E-03
1565,0.9918013,8.07E-03
1566,0.9921427,7.74E-03
1567,0.9924275,7.47E-03
1568,0.9926617,7.25E-03
1569,0.9928504,7.06E-03
1570,0.9929981,6.92E-03
1571,0.9931086,6.82E-03
1572,0.9931849,6.75E-03
1573,0.9932289,6.70E-03
1574,0.9932422,6.69E-03
1575,0.9932256,6.71E-03
1576,0.9931798,6.76E-03
1577,0.9931045,6.84E-03
1578,0.9929993,6.94E-03
1579,0.9928635,7.08E-03
1580,0.9926955,7.25E-03
1581,0.9924939,7.45E-03
1582,0.9922566,7.69E-03
1583,0.991981,7.96E-03
1584,0.9916638,8.28E-03
1585,0.9913018,8.64E-03
1586,0.990891,9.05E-03
1587,0.9904269,9.51E-03
1588,0.9899051,1.00E-02
1589,0.9893205,1.06E-02
1590,0.9886683,1.13E-02
1591,0.9879435,1.20E-02
1592,0.9871423,1.28E-02
1593,0.9862617,1.37E-02
1594,0.9853008,1.46E-02
1595,0.9842618,1.56E-02
1596,0.9831512,1.67E-02
1597,0.9819809,1.79E-02
1598,0.9807692,1.91E-02
1599,0.9795426,2.03E-02
1600,0.9783347,2.15E-02
1601,0.9771846,2.27E-02
1602,0.9761354,2.37E-02
1603,0.9752277,2.46E-02
1604,0.9744953,0.0253261
1605,0.9739597,2.58E-02
1606,0.9736285,0.0261594
1607,0.9734979,2.63E-02
1608,0.9735622,2.62E-02
1609,0.973829,2.59E-02
1610,0.974326,2.54E-02
1611,0.9750787,2.46E-02
1612,0.9760718,0.023652
1613,0.9772311,2.25E-02
1614,0.9784529,2.13E-02
1615,0.9796511,2.02E-02
1616,0.9807748,1.91E-02
1617,0.9818014,1.80E-02
1618,0.9827257,1.71E-02
1619,0.9835512,1.63E-02
1620,0.984284,1.56E-02
1621,0.9849336,1.50E-02
1622,0.9855044,1.44E-02
1623,0.9860029,1.39E-02
1624,0.9864349,1.35E-02
1625,0.9868058,1.31E-02
1626,0.9871199,1.28E-02
1627,0.9873809,1.26E-02
1628,0.9875922,0.0123449
1629,0.9877566,1.22E-02
1630,0.987876,1.21E-02
1631,0.9879523,1.20E-02
1632,0.9879869,1.20E-02
1633,0.9879802,0.0119642
1634,0.9879332,1.20E-02
1635,0.9878458,1.21E-02
1636,0.9877177,0.0122277
1637,0.9875484,1.24E-02
1638,0.9873369,1.26E-02
1639,0.9870822,1.29E-02
1640,0.986783,1.32E-02
1641,0.9864379,1.35E-02
1642,0.9860449,1.39E-02
1643,0.9856024,1.43E-02
1644,0.9851083,1.48E-02
1645,0.9845611,1.54E-02
1646,0.9839594,1.60E-02
1647,0.9833023,1.66E-02
1648,0.9825896,1.73E-02
1649,0.9818224,1.81E-02
1650,0.9810033,1.89E-02
1651,0.9801367,1.98E-02
1652,0.9792296,0.0206844
1653,0.9782918,2.16E-02
1654,0.9773361,2.26E-02
1655,0.9763796,2.35E-02
1656,0.9754418,2.45E-02
1657,0.9745464,2.53E-02
1658,0.9737183,2.62E-02
1659,0.9729843,2.69E-02
1660,0.9723691,2.75E-02
1661,0.9718962,2.80E-02
1662,0.9715832,0.0282838
1663,0.9714406,2.84E-02
1664,0.9714715,2.84E-02
1665,0.9716709,2.82E-02
1666,0.9720259,2.78E-02
1667,0.972519,2.73E-02
1668,0.9731282,2.67E-02
1669,0.9738297,2.60E-02
1670,0.9746001,2.52E-02
1671,0.9754176,2.44E-02
1672,0.9762624,2.36E-02
1673,0.9771171,0.0227203
1674,0.9779673,2.19E-02
1675,0.9788008,2.10E-02
1676,0.9796073,0.0202447
1677,0.9803794,1.95E-02
1678,0.981111,1.88E-02
1679,0.9817982,1.81E-02
1680,0.9824386,1.74E-02
1681,0.983028,1.69E-02
1682,0.9835697,1.63E-02
1683,0.9840645,1.58E-02
1684,0.9845134,1.54E-02
1685,0.9849182,1.50E-02
1686,0.9852806,0.014642
1687,0.9856025,1.43E-02
1688,0.9858858,0.0140463
1689,0.9861322,1.38E-02
1690,0.9863436,1.36E-02
1691,0.9865212,1.34E-02
1692,0.9866668,1.33E-02
1693,0.9867815,1.32E-02
1694,0.9868662,1.31E-02
1695,0.9869221,1.30E-02
1696,0.98695,1.30E-02
1697,0.9869505,1.30E-02
1698,0.9869241,1.30E-02
1699,0.9868715,1.31E-02
1700,0.9867927,1.32E-02
1701,0.986689,1.33E-02
1702,0.9865595,1.34E-02
1703,0.9864045,1.36E-02
1704,0.9862241,1.37E-02
1705,0.9860183,1.40E-02
1706,0.9857873,1.42E-02
1707,0.9855311,1.44E-02
1708,0.9852501,1.47E-02
1709,0.9849443,1.50E-02
1710,0.9846144,1.54E-02
1711,0.9842608,1.57E-02
1712,0.9838844,0.0160902
1713,0.9834863,1.65E-02
1714,0.9830679,1.69E-02
1715,0.9826308,0.0173454
1716,0.9821772,1.78E-02
1717,0.9817097,1.83E-02
1718,0.9812313,1.87E-02
1719,0.9807455,1.92E-02
1720,0.9802561,1.97E-02
1721,0.979768,2.02E-02
1722,0.9792857,2.07E-02
1723,0.9788139,2.12E-02
1724,0.9783581,2.16E-02
1725,0.9779237,2.21E-02
1726,0.9775158,2.25E-02
1727,0.9771394,0.0228407
1728,0.9767991,0.0231812
1729,0.9764988,2.35E-02
1730,0.9762419,0.0237387
1731,0.9760306,2.40E-02
1732,0.9758664,2.41E-02
1733,0.9757496,2.42E-02
1734,0.9756794,2.43E-02
1735,0.9756544,2.43E-02
1736,0.9756721,2.43E-02
1737,0.9757292,2.43E-02
1738,0.9758218,2.42E-02
1739,0.9759457,2.40E-02
1740,0.9760963,2.39E-02
1741,0.9762688,0.0237132
1742,0.9764585,2.35E-02
1743,0.9766606,2.33E-02
1744,0.9768708,2.31E-02
1745,0.9770847,2.29E-02
1746,0.9772985,2.27E-02
1747,0.9775085,2.25E-02
1748,0.9777114,2.23E-02
1749,0.9779043,2.21E-02
1750,0.9780846,2.19E-02
1751,0.97825,2.17E-02
1752,0.9783982,2.16E-02
1753,0.9785276,2.15E-02
1754,0.9786365,2.13E-02
1755,0.9787234,2.13E-02
1756,0.9787869,2.12E-02
1757,0.9788259,0.0211563
1758,0.9788392,2.11E-02
1759,0.9788256,2.12E-02
1760,0.9787841,2.12E-02
1761,0.9787139,2.13E-02
1762,0.9786134,2.14E-02
1763,0.9784814,0.0215004
1764,0.9783166,2.17E-02
1765,0.9781176,0.021864
1766,0.977883,2.21E-02
1767,0.9776111,0.0223703
1768,0.9773001,2.27E-02
1769,0.9769482,2.30E-02
1770,0.9765531,2.34E-02
1771,0.9761127,2.39E-02
1772,0.9756243,2.44E-02
1773,0.9750851,2.49E-02
1774,0.974492,2.55E-02
1775,0.9738417,2.61E-02
1776,0.9731306,2.68E-02
1777,0.9723548,2.76E-02
1778,0.9715099,0.0284693
1779,0.9705914,2.94E-02
1780,0.9695942,3.04E-02
1781,0.9685144,3.15E-02
1782,0.9673451,3.26E-02
1783,0.96608,3.39E-02
1784,0.9647124,3.53E-02
1785,0.9632351,3.67E-02
1786,0.96164,3.83E-02
1787,0.9599186,4.01E-02
1788,0.9580613,4.19E-02
1789,0.9560577,4.39E-02
1790,0.9538962,4.61E-02
1791,0.9515637,4.84E-02
1792,0.9490461,5.09E-02
1793,0.946327,5.36E-02
1794,0.9433885,5.66E-02
1795,0.9402106,5.98E-02
1796,0.9367711,6.32E-02
1797,0.9330453,6.69E-02
1798,0.929006,0.0709643
1799,0.9246236,0.0753459
1800,0.9198659,8.01E-02
1801,0.914698,8.53E-02
1802,0.9090824,9.09E-02
1803,0.9029791,9.70E-02
1804,0.8963464,0.1036188
1805,0.8891405,0.1108237
1806,0.8813166,0.1186465
1807,0.8728297,0.1271323
1808,0.8636354,0.1363254
1809,0.8536919,0.1462678
1810,0.8429611,0.1569972
1811,0.8314117,0.1685454
1812,0.8190208,0.1809349
1813,0.805778,0.1941763
1814,0.7916877,0.2082651
1815,0.7767739,0.2231775
1816,0.7610826,0.2388673
1817,0.7446851,0.2552634
1818,0.7276806,0.2722664
1819,0.7101969,0.2897487
1820,0.6923897,0.3075545
1821,0.6744092,0.3255337
1822,0.6564884,0.3434532
1823,0.6388431,0.3610974
1824,0.6216928,0.3782467
1825,0.6052508,0.3946878
1826,0.5897125,0.4102253
1827,0.5752459,0.4246913
1828,0.5619828,0.4379538
1829,0.5500134,0.4499228
1830,0.5393832,0.4605528
1831,0.5300936,0.4698422
1832,0.522105,0.4778306
1833,0.5153425,0.484593
1834,0.5097024,0.4902331
1835,0.5050597,0.4948758
1836,0.5012754,0.4986601
1837,0.4982029,0.5017325
1838,0.495694,0.5042413
1839,0.4936026,0.5063327
1840,0.4917879,0.5081471
1841,0.490119,0.5098158
1842,0.4884679,0.5114666
1843,0.4867178,0.5132163
1844,0.4847594,0.5151742
1845,0.4824891,0.5174437
1846,0.479808,0.520124
1847,0.4766197,0.5233114
1848,0.472828,0.527102
1849,0.4683353,0.5315933
1850,0.4630403,0.536887
1851,0.4568355,0.5430902
1852,0.4496062,0.5503176
1853,0.4412288,0.5586929
1854,0.4315706,0.5683489
1855,0.420491,0.5794261
1856,0.4078438,0.5920705
1857,0.393484,0.6064273
1858,0.3772766,0.6226314
1859,0.3591115,0.6407931
1860,0.338923,0.6609777
1861,0.3167163,0.6831806
1862,0.2925955,0.7072973
1863,0.2667956,0.7330932
1864,0.2397063,0.7601786
1865,0.2118837,0.7879975
1866,0.1840372,0.8158407
1867,0.1569876,0.8428876
1868,0.1315953,0.8682779
1869,0.1086675,0.8912045
1870,8.89E-02,0.9110064
1871,7.26E-02,0.9272432
1872,6.01E-02,0.939733
1873,5.13E-02,0.9485458
1874,4.59E-02,0.9539627
1875,4.35E-02,0.9564136
1876,4.35E-02,0.9564082
1877,4.54E-02,0.9544765
1878,4.88E-02,0.9511241
1879,5.31E-02,0.9468037
1880,5.80E-02,0.9419019
1881,6.32E-02,0.9367376
1882,6.83E-02,0.9315594
1883,7.33E-02,0.9265603
1884,7.80E-02,0.921883
1885,8.23E-02,0.9176304
1886,8.60E-02,0.9138719
1887,8.93E-02,0.9106516
1888,9.19E-02,0.9079927
1889,9.40E-02,0.9059027
1890,9.55E-02,0.9043766
1891,9.65E-02,0.9033991
1892,9.70E-02,0.902947
1893,9.69E-02,0.902991
1894,9.64E-02,0.903496
1895,9.55E-02,0.9044231
1896,9.42E-02,0.9057295
1897,9.25E-02,0.90737
1898,9.06E-02,0.9092969
1899,8.85E-02,0.9114615
1900,8.61E-02,0.9138144
1901,8.36E-02,0.9163104
1902,8.10E-02,0.9188974
1903,7.84E-02,0.9215286
1904,7.58E-02,0.9241595
1905,7.32E-02,0.9267491
1906,7.07E-02,0.92926
1907,6.83E-02,0.9316595
1908,6.60E-02,0.93392
1909,6.39E-02,0.9360188
1910,6.20E-02,0.9379389
1911,6.02E-02,0.9396686
1912,5.87E-02,0.9412012
1913,5.74E-02,0.9425351
1914,0.0562426,0.943673
1915,5.53E-02,0.9446213
1916,5.45E-02,0.9453903
1917,5.39E-02,0.9459923
1918,5.35E-02,0.946442
1919,5.32E-02,0.9467553
1920,5.30E-02,0.9469492
1921,5.29E-02,0.9470397
1922,5.29E-02,0.947045
1923,5.29E-02,0.9469813
1924,5.31E-02,0.9468641
1925,5.32E-02,0.9467074
1926,5.34E-02,0.9465245
1927,5.36E-02,0.9463269
1928,5.38E-02,0.9461248
1929,5.40E-02,0.9459267
1930,5.42E-02,0.9457399
1931,5.44E-02,0.94557
1932,5.45E-02,0.9454215
1933,5.46E-02,0.9452974
1934,5.47E-02,0.9451996
1935,5.48E-02,0.9451288
1936,5.48E-02,0.9450847
1937,5.49E-02,0.9450659
1938,0.0548526,0.9450703
1939,5.48E-02,0.945095
1940,5.48E-02,0.9451364
1941,5.47E-02,0.9451903
1942,0.0546715,0.945252
1943,5.46E-02,0.9453164
1944,5.45E-02,0.945378
1945,5.45E-02,0.9454314
1946,5.45E-02,0.9454708
1947,5.44E-02,0.9454905
1948,5.44E-02,0.9454851
1949,5.45E-02,0.9454494
1950,5.45E-02,0.9453784
1951,5.47E-02,0.9452678
1952,5.48E-02,0.9451139
1953,5.50E-02,0.9449135
1954,5.53E-02,0.9446645
1955,5.56E-02,0.9443653
1956,5.59E-02,0.9440155
1957,5.63E-02,0.9436156
1958,5.68E-02,0.9431669
1959,5.73E-02,0.942672
1960,5.78E-02,0.9421341
1961,5.84E-02,0.941556
1962,0.0589819,0.9409443
1963,5.96E-02,0.9403052
1964,6.03E-02,0.9396453
1965,6.10E-02,0.9389718
1966,6.16E-02,0.9382925
1967,6.23E-02,0.9376153
1968,6.30E-02,0.9369487
1969,6.36E-02,0.9363007
1970,6.42E-02,0.9356798
1971,6.48E-02,0.9350947
1972,6.54E-02,0.9345526
1973,0.0658676,0.9340606
1974,6.63E-02,0.9336259
1975,6.67E-02,0.9332547
1976,6.70E-02,0.9329526
1977,6.72E-02,0.9327247
1978,0.0673542,0.9325748
1979,6.74E-02,0.9325065
1980,6.74E-02,0.9325222
1981,0.0673065,0.9326229
1982,6.71E-02,0.9328095
1983,0.0668477,0.9330819
1984,6.65E-02,0.9334391
1985,6.61E-02,0.9338793
1986,6.55E-02,0.9344
1987,6.49E-02,0.9349977
1988,6.43E-02,0.9356686
1989,6.35E-02,0.9364077
1990,6.27E-02,0.9372097
1991,6.19E-02,0.9380687
1992,0.0609519,0.9389781
1993,6.00E-02,0.9399311
1994,5.90E-02,0.9409202
1995,5.80E-02,0.9419377
1996,5.70E-02,0.9429757
1997,5.59E-02,0.944026
1998,5.48E-02,0.9450802
1999,5.38E-02,0.9461299
2000,5.28E-02,0.9471666
2001,5.17E-02,0.9481792
2002,5.07E-02,0.9491602
2003,0.0497244,0.9501007
2004,4.88E-02,0.9509926
2005,4.79E-02,0.951828
2006,4.71E-02,0.9525995
2007,4.64E-02,0.9533001
2008,4.57E-02,0.9539236
2009,4.52E-02,0.9544647
2010,4.47E-02,0.9549184
2011,4.43E-02,0.9552811
2012,4.40E-02,0.9555495
2013,4.38E-02,0.9557216
2014,4.36E-02,0.9557961
2015,4.36E-02,0.9557728
2016,4.37E-02,0.9556524
2017,4.39E-02,0.9554363
2018,0.0441796,0.9551272
2019,4.45E-02,0.9547285
2020,4.50E-02,0.9542444
2021,4.55E-02,0.9536799
2022,4.61E-02,0.9530408
2023,4.68E-02,0.9523334
2024,4.75E-02,0.9515648
2025,4.83E-02,0.9507425
2026,0.0491702,0.9498745
2027,5.00E-02,0.9489688
2028,5.09E-02,0.9480339
2029,5.19E-02,0.9470786
2030,5.28E-02,0.9461114
2031,5.37E-02,0.9451409
2032,5.47E-02,0.9441757
2033,5.56E-02,0.9432241
2034,5.65E-02,0.942294
2035,5.74E-02,0.9413933
2036,5.82E-02,0.9405292
2037,5.90E-02,0.9397087
2038,5.97E-02,0.938938
2039,6.04E-02,0.938223
2040,6.10E-02,0.937569
2041,6.16E-02,0.9369805
2042,6.21E-02,0.9364619
2043,6.25E-02,0.9360162
2044,6.28E-02,0.9356464
2045,6.31E-02,0.9353546
2046,6.33E-02,0.9351421
2047,6.34E-02,0.9350099
2048,6.34E-02,0.934958
2049,6.34E-02,0.9349862
2050,6.32E-02,0.9350932
2051,0.063002,0.9352774
2052,6.27E-02,0.9355367
2053,6.23E-02,0.9358682
2054,6.19E-02,0.9362687
2055,6.14E-02,0.9367344
2056,6.09E-02,0.9372612
2057,6.02E-02,0.9378445
2058,5.96E-02,0.938479
2059,5.89E-02,0.9391581
2060,5.81E-02,0.9398775
2061,5.73E-02,0.9406312
2062,5.65E-02,0.9414132
2063,5.57E-02,0.9422171
2064,5.48E-02,0.9430366
2065,5.40E-02,0.9438651
2066,5.31E-02,0.9446961
2067,5.22E-02,0.9455231
2068,5.14E-02,0.9463398
2069,5.06E-02,0.9471398
2070,4.98E-02,0.9479169
2071,4.90E-02,0.9486653
2072,4.82E-02,0.9493794
2073,4.75E-02,0.9500538
2074,4.69E-02,0.9506834
2075,4.62E-02,0.9512638
2076,4.57E-02,0.9517909
2077,4.52E-02,0.952261
2078,4.47E-02,0.9526708
2079,4.44E-02,0.9530177
2080,4.41E-02,0.9532996
2081,4.38E-02,0.9535151
2082,4.36E-02,0.953663
2083,0.0435175,0.953743
2084,4.35E-02,0.9537553
2085,4.35E-02,0.9537005
2086,4.36E-02,0.95358
2087,0.0437475,0.9533955
2088,4.40E-02,0.9531494
2089,4.42E-02,0.9528445
2090,4.46E-02,0.952484
2091,4.50E-02,0.9520714
2092,4.54E-02,0.951611
2093,4.59E-02,0.951107
2094,0.0463847,0.9505641
2095,4.69E-02,0.9499872
2096,4.75E-02,0.9493812
2097,4.81E-02,0.9487516
2098,4.87E-02,0.9481034
2099,4.94E-02,0.9474423
2100,5.00E-02,0.9467735
2101,0.0506637,0.9461023
2102,5.13E-02,0.9454341
2103,5.19E-02,0.944774
2104,5.26E-02,0.944127
2105,5.32E-02,0.9434979
2106,5.37E-02,0.9428913
2107,5.43E-02,0.9423116
2108,5.48E-02,0.9417628
2109,0.0553131,0.9412488
2110,5.58E-02,0.9407728
2111,5.62E-02,0.9403382
2112,5.65E-02,0.9399477
2113,5.69E-02,0.9396036
2114,5.71E-02,0.9393081
2115,5.73E-02,0.9390628
2116,5.75E-02,0.938869
2117,5.76E-02,0.9387277
2118,5.77E-02,0.9386394
2119,5.77E-02,0.9386043
2120,5.76E-02,0.9386222
2121,5.75E-02,0.9386925
2122,5.74E-02,0.9388144
2123,5.72E-02,0.9389866
2124,5.69E-02,0.9392076
2125,5.67E-02,0.9394755
2126,5.63E-02,0.939788
2127,5.59E-02,0.9401429
2128,5.55E-02,0.9405372
2129,5.50E-02,0.9409682
2130,5.45E-02,0.9414326
2131,5.40E-02,0.941927
2132,0.0534733,0.942448
2133,0.0528993,0.9429917
2134,5.23E-02,0.9435543
2135,5.17E-02,0.9441321
2136,5.11E-02,0.9447209
2137,0.050452,0.9453168
2138,4.98E-02,0.9459156
2139,4.92E-02,0.9465135
2140,4.86E-02,0.9471062
2141,4.80E-02,0.94769
2142,4.74E-02,0.9482608
2143,4.68E-02,0.9488152
2144,0.0462051,0.9493495
2145,4.57E-02,0.9498602
2146,4.51E-02,0.9503443
2147,4.47E-02,0.9507986
2148,4.42E-02,0.9512205
2149,4.38E-02,0.9516074
2150,4.34E-02,0.9519572
2151,4.31E-02,0.9522679
2152,4.28E-02,0.9525379
2153,0.0425233,0.9527659
2154,4.23E-02,0.952952
2155,4.21E-02,0.9530943
2156,4.20E-02,0.9531925
2157,4.19E-02,0.9532467
2158,4.19E-02,0.953257
2159,4.19E-02,0.9532239
2160,4.19E-02,0.9531485
2161,4.20E-02,0.9530319
2162,4.22E-02,0.9528755
2163,4.23E-02,0.952681
2164,4.25E-02,0.9524505
2165,4.28E-02,0.952186
2166,4.31E-02,0.9518899
2167,4.34E-02,0.951565
2168,0.0436839,0.9512137
2169,4.40E-02,0.9508392
2170,4.44E-02,0.9504442
2171,4.48E-02,0.9500319
2172,4.52E-02,0.9496055
2173,4.56E-02,0.9491681
2174,4.60E-02,0.948723
2175,4.65E-02,0.9482732
2176,4.69E-02,0.9478221
2177,4.73E-02,0.9473727
2178,4.77E-02,0.9469281
2179,4.82E-02,0.9464912
2180,4.86E-02,0.9460651
2181,4.89E-02,0.9456524
2182,4.93E-02,0.9452556
2183,4.97E-02,0.9448774
2184,5.00E-02,0.94452
2185,5.03E-02,0.9441855
2186,5.06E-02,0.943876
2187,5.09E-02,0.943593
2188,5.11E-02,0.9433383
2189,5.13E-02,0.9431131
2190,5.15E-02,0.9429186
2191,5.16E-02,0.9427558
2192,5.17E-02,0.9426252
2193,5.18E-02,0.9425275
2194,5.18E-02,0.9424628
2195,5.18E-02,0.9424313
2196,5.18E-02,0.9424328
2197,0.0517458,0.9424669
2198,0.051654,0.942533
2199,5.15E-02,0.9426303
2200,5.14E-02,0.942758
2201,5.12E-02,0.9429147
2202,5.10E-02,0.9430993
2203,5.07E-02,0.9433102
2204,5.05E-02,0.9435457
2205,5.02E-02,0.9438041
2206,4.99E-02,0.9440833
2207,4.96E-02,0.9443815
2208,4.92E-02,0.9446962
2209,4.89E-02,0.9450254
2210,4.85E-02,0.9453666
2211,4.81E-02,0.9457175
2212,4.77E-02,0.9460755
2213,4.73E-02,0.9464382
2214,4.69E-02,0.946803
2215,4.66E-02,0.9471675
2216,4.62E-02,0.9475291
2217,4.58E-02,0.9478853
2218,4.54E-02,0.9482337
2219,4.50E-02,0.948572
2220,4.47E-02,0.9488977
2221,4.44E-02,0.9492087
2222,4.40E-02,0.9495028
2223,4.37E-02,0.9497782
2224,4.34E-02,0.9500328
2225,4.32E-02,0.950265
2226,4.30E-02,0.9504731
2227,0.0427429,0.9506559
2228,4.26E-02,0.9508119
2229,4.24E-02,0.9509401
2230,4.23E-02,0.9510397
2231,4.22E-02,0.9511099
2232,4.21E-02,0.9511501
2233,4.21E-02,0.9511602
2234,4.21E-02,0.9511398
2235,4.21E-02,0.9510891
2236,4.22E-02,0.9510083
2237,4.23E-02,0.9508978
2238,4.24E-02,0.9507582
2239,4.25E-02,0.9505904
2240,4.27E-02,0.950395
2241,4.29E-02,0.9501736
2242,4.31E-02,0.949927
2243,4.34E-02,0.9496567
2244,4.36E-02,0.9493644
2245,4.39E-02,0.9490516
2246,4.42E-02,0.9487199
2247,0.0445591,0.9483714
2248,4.49E-02,0.9480079
2249,4.53E-02,0.9476314
2250,0.0456241,0.9472439
2251,4.60E-02,0.9468474
2252,4.64E-02,0.9464443
2253,4.68E-02,0.9460365
2254,4.72E-02,0.9456261
2255,4.75E-02,0.9452154
2256,4.79E-02,0.9448064
2257,4.83E-02,0.9444013
2258,4.87E-02,0.9440019
2259,4.91E-02,0.9436104
2260,4.94E-02,0.9432287
2261,4.98E-02,0.9428586
2262,5.01E-02,0.9425019
2263,5.04E-02,0.9421602
2264,5.07E-02,0.9418352
2265,5.10E-02,0.9415283
2266,5.13E-02,0.9412409
2267,5.15E-02,0.9409742
2268,5.18E-02,0.9407294
2269,5.20E-02,0.9405076
2270,5.21E-02,0.9403095
2271,5.23E-02,0.9401359
2272,5.24E-02,0.9399874
2273,5.25E-02,0.9398646
2274,0.0525869,0.9397677
2275,5.26E-02,0.9396969
2276,5.27E-02,0.9396523
2277,5.26E-02,0.9396339
2278,5.26E-02,0.9396414
2279,5.26E-02,0.9396746
2280,5.25E-02,0.9397328
2281,5.24E-02,0.9398156
2282,5.22E-02,0.9399222
2283,5.21E-02,0.9400517
2284,5.19E-02,0.9402034
2285,5.17E-02,0.9403759
2286,5.15E-02,0.9405683
2287,5.12E-02,0.9407793
2288,5.10E-02,0.9410076
2289,5.07E-02,0.9412516
2290,0.0504363,0.94151
2291,5.01E-02,0.9417812
2292,4.98E-02,0.9420636
2293,4.95E-02,0.9423555
2294,4.92E-02,0.9426553
2295,4.88E-02,0.9429612
2296,4.85E-02,0.9432715
2297,4.82E-02,0.9435845
2298,4.78E-02,0.9438984
2299,4.75E-02,0.9442116
2300,4.72E-02,0.9445223
2301,4.68E-02,0.9448288
2302,4.65E-02,0.9451296
2303,4.62E-02,0.945423
2304,4.59E-02,0.9457075
2305,4.56E-02,0.9459817
2306,4.53E-02,0.9462442
2307,4.50E-02,0.9464937
2308,0.0447327,0.9467289
2309,4.45E-02,0.9469488
2310,4.43E-02,0.9471523
2311,4.40E-02,0.9473385
2312,4.39E-02,0.9475067
2313,4.37E-02,0.947656
2314,4.35E-02,0.947786
2315,4.34E-02,0.9478961
2316,4.33E-02,0.947986
2317,4.32E-02,0.9480555
2318,4.31E-02,0.9481044
2319,4.31E-02,0.9481328
2320,4.30E-02,0.9481406
2321,4.30E-02,0.9481283
2322,4.30E-02,0.948096
2323,4.31E-02,0.9480443
2324,4.31E-02,0.9479737
2325,0.0431782,0.9478846
2326,4.33E-02,0.9477781
2327,4.34E-02,0.9476547
2328,4.35E-02,0.9475154
2329,4.36E-02,0.9473611
2330,4.38E-02,0.9471928
2331,4.39E-02,0.9470116
2332,4.41E-02,0.9468186
2333,4.43E-02,0.946615
2334,4.45E-02,0.946402
2335,4.47E-02,0.9461808
2336,4.49E-02,0.9459526
2337,4.51E-02,0.9457188
2338,4.53E-02,0.9454805
2339,4.55E-02,0.9452391
2340,4.58E-02,0.9449959
2341,4.60E-02,0.944752
2342,4.62E-02,0.9445089
2343,4.64E-02,0.9442676
2344,4.67E-02,0.9440294
2345,4.69E-02,0.9437954
2346,4.71E-02,0.9435667
2347,4.73E-02,0.9433445
2348,0.0474852,0.9431297
2349,4.77E-02,0.9429232
2350,4.78E-02,0.9427261
2351,4.80E-02,0.9425392
2352,4.82E-02,0.9423632
2353,4.83E-02,0.9421988
2354,4.84E-02,0.9420467
2355,0.048568,0.9419075
2356,4.87E-02,0.9417816
2357,4.88E-02,0.9416695
2358,4.88E-02,0.9415714
2359,4.89E-02,0.9414877
2360,4.90E-02,0.9414185
2361,4.90E-02,0.941364
2362,4.90E-02,0.9413241
2363,0.0490058,0.9412988
2364,4.90E-02,0.9412879
2365,4.90E-02,0.9412912
2366,0.0489286,0.9413084
2367,4.89E-02,0.9413391
2368,4.88E-02,0.9413829
2369,4.87E-02,0.9414393
2370,4.86E-02,0.9415076
2371,4.85E-02,0.9415872
2372,4.84E-02,0.9416775
2373,4.83E-02,0.9417775
2374,4.82E-02,0.9418865
2375,4.80E-02,0.9420038
2376,4.79E-02,0.9421282
2377,4.77E-02,0.9422588
2378,4.76E-02,0.9423948
2379,4.74E-02,0.942535
2380,4.72E-02,0.9426784
2381,0.0470527,0.9428239
2382,4.69E-02,0.9429706
2383,4.67E-02,0.9431172
2384,4.65E-02,0.9432628
2385,4.64E-02,0.9434062
2386,0.0462065,0.9435464
2387,4.60E-02,0.9436824
2388,4.59E-02,0.9438131
2389,4.57E-02,0.9439376
2390,4.56E-02,0.9440549
2391,4.55E-02,0.944164
2392,4.53E-02,0.9442642
2393,4.52E-02,0.9443545
2394,4.51E-02,0.9444342
2395,4.50E-02,0.9445027
2396,4.50E-02,0.9445592
2397,4.49E-02,0.9446031
2398,4.48E-02,0.944634
2399,4.48E-02,0.9446513
2400,4.48E-02,0.9446548
2401,4.48E-02,0.9446439
2402,4.48E-02,0.9446186
2403,0.0447728,0.9445788
2404,4.48E-02,0.9445241
2405,4.49E-02,0.9444548
2406,4.49E-02,0.9443707
2407,4.50E-02,0.944272
2408,4.51E-02,0.944159
2409,4.52E-02,0.9440319
2410,0.0453104,0.9438909
2411,4.54E-02,0.9437366
2412,4.56E-02,0.9435693
2413,4.57E-02,0.9433895
2414,4.59E-02,0.9431979
2415,4.61E-02,0.942995
2416,4.63E-02,0.9427815
2417,4.65E-02,0.9425581
2418,4.67E-02,0.9423255
2419,4.69E-02,0.9420845
2420,4.72E-02,0.9418359
2421,4.74E-02,0.9415807
2422,4.76E-02,0.9413194
2423,4.79E-02,0.9410532
2424,4.81E-02,0.9407829
2425,4.84E-02,0.9405094
2426,4.86E-02,0.9402336
2427,4.89E-02,0.9399564
2428,4.92E-02,0.9396788
2429,4.94E-02,0.9394016
2430,4.97E-02,0.9391258
2431,4.99E-02,0.9388523
2432,0.0501782,0.938582
2433,5.04E-02,0.9383157
2434,5.07E-02,0.9380543
2435,5.09E-02,0.9377986
2436,5.11E-02,0.9375494
2437,5.13E-02,0.9373076
2438,5.16E-02,0.9370744
2439,5.18E-02,0.9368501
2440,5.20E-02,0.9366352
2441,5.21E-02,0.9364305
2442,5.23E-02,0.9362364
2443,5.25E-02,0.9360538
2444,0.0526165,0.935883
2445,5.28E-02,0.9357246
2446,5.29E-02,0.9355789
2447,5.30E-02,0.9354466
2448,5.31E-02,0.9353278
2449,5.32E-02,0.9352231
2450,5.32E-02,0.9351326
2451,5.33E-02,0.9350565
2452,0.0533085,0.9349952
2453,0.0533291,0.9349486
2454,5.33E-02,0.934917
2455,5.33E-02,0.9349005
2456,0.053299,0.9348989
2457,5.33E-02,0.9349123
2458,5.32E-02,0.9349407
2459,5.31E-02,0.9349839
2460,5.30E-02,0.9350417
2461,5.29E-02,0.9351141
2462,5.28E-02,0.9352006
2463,5.27E-02,0.9353012
2464,5.26E-02,0.9354154
2465,5.24E-02,0.9355429
2466,5.22E-02,0.9356833
2467,5.20E-02,0.9358363
2468,5.18E-02,0.9360012
2469,5.16E-02,0.9361777
2470,5.14E-02,0.9363652
2471,5.12E-02,0.9365632
2472,5.09E-02,0.936771
2473,5.07E-02,0.936988
2474,5.04E-02,0.9372135
2475,5.02E-02,0.9374468
2476,4.99E-02,0.9376872
2477,4.96E-02,0.9379337
2478,4.93E-02,0.9381856
2479,4.90E-02,0.9384419
2480,4.87E-02,0.9387017
2481,0.0484435,0.9389639
2482,4.81E-02,0.9392275
2483,4.78E-02,0.9394913
2484,4.75E-02,0.9397539
2485,4.72E-02,0.9400141
2486,4.69E-02,0.9402704
2487,4.67E-02,0.9405213
2488,4.64E-02,0.9407651
2489,4.61E-02,0.9410001
2490,0.045831,0.9412243
2491,0.0455774,0.9414358
2492,4.53E-02,0.9416321
2493,4.51E-02,0.9418111
2494,4.49E-02,0.9419702
2495,4.47E-02,0.9421067
2496,4.46E-02,0.9422175
2497,4.44E-02,0.9422996
2498,4.43E-02,0.9423497
2499,4.43E-02,0.9423641
2500,4.43E-02,0.9423391
