# wavelength (nm) transmission (I/F) 
9.800000000000000000e+02 1.331372259622194514e-02
9.800499999999999545e+02 1.316738082595615873e-02
9.800999999999999091e+02 1.302108285913434159e-02
9.801499999999998636e+02 1.287482873819629711e-02
9.801999999999998181e+02 1.272861850554896090e-02
9.802499999999997726e+02 1.258245220356630362e-02
9.802999999999997272e+02 1.243632987458935350e-02
9.803499999999996817e+02 1.229025156092621029e-02
9.803999999999996362e+02 1.214421730485194112e-02
9.804499999999995907e+02 1.199822714860873489e-02
9.804999999999995453e+02 1.185228113440577914e-02
9.805499999999994998e+02 1.170652426869177136e-02
9.805999999999994543e+02 1.156150267844596562e-02
9.806499999999994088e+02 1.141650444549337749e-02
9.806999999999993634e+02 1.127152961308246909e-02
9.807499999999993179e+02 1.112657822444164911e-02
9.807999999999992724e+02 1.098165032277921907e-02
9.808499999999992269e+02 1.083674595128338372e-02
9.808999999999991815e+02 1.069186515312228400e-02
9.809499999999991360e+02 1.054700797144388601e-02
9.809999999999990905e+02 1.040217444937606255e-02
9.810499999999990450e+02 1.033029449214243646e-02
9.810999999999989996e+02 1.025843797226842248e-02
9.811499999999989541e+02 1.018660490573489869e-02
9.811999999999989086e+02 1.011479530850816974e-02
9.812499999999988631e+02 1.004300919653869535e-02
9.812999999999988177e+02 9.971242531653073948e-03
9.813499999999987722e+02 9.899496361933827343e-03
9.813999999999987267e+02 9.827773828204485612e-03
9.814499999999986812e+02 9.756074946300445985e-03
9.814999999999986358e+02 9.684399732041231237e-03
9.815499999999985903e+02 9.612748201230428974e-03
9.815999999999985448e+02 9.541120369655778366e-03
9.816499999999984993e+02 9.469516253089052191e-03
9.816999999999984539e+02 9.397658227573336617e-03
9.817499999999984084e+02 9.325652164108428482e-03
9.817999999999983629e+02 9.253676723638939311e-03
9.818499999999983174e+02 9.181731919914009818e-03
9.818999999999982720e+02 9.109817766663322325e-03
9.819499999999982265e+02 9.037934277596974125e-03
9.819999999999981810e+02 8.966081466405598915e-03
9.820499999999981355e+02 9.085363356379645358e-03
9.820999999999980901e+02 9.204544016225023328e-03
9.821499999999980446e+02 9.323623482669764900e-03
9.821999999999979991e+02 9.442601792453061624e-03
9.822499999999979536e+02 9.561478982318219813e-03
9.822999999999979082e+02 9.680255089012778508e-03
9.823499999999978627e+02 9.798930149288389777e-03
9.823999999999978172e+02 9.917504199900822187e-03
9.824499999999977717e+02 1.003597727761000070e-02
9.824999999999977263e+02 1.015434941917998761e-02
9.825499999999976808e+02 1.027262066137888535e-02
9.825999999999976353e+02 1.039079104097899095e-02
9.826499999999975898e+02 1.050886059475662597e-02
9.826999999999975444e+02 1.062682935949218858e-02
9.827499999999974989e+02 1.074469737197017265e-02
9.827999999999974534e+02 1.086250390608630746e-02
9.828499999999974079e+02 1.098097016165006622e-02
9.828999999999973625e+02 1.109935310188998533e-02
9.829499999999973170e+02 1.121765274846374220e-02
9.829999999999972715e+02 1.133586912303573800e-02
9.830499999999972260e+02 1.145526312848396330e-02
9.830999999999971806e+02 1.157459606173364547e-02
9.831499999999971351e+02 1.169387752747956706e-02
9.831999999999970896e+02 1.181310536869048002e-02
9.832499999999970441e+02 1.193227247824914065e-02
9.832999999999969987e+02 1.205137885545648838e-02
9.833499999999969532e+02 1.217042449962631168e-02
9.833999999999969077e+02 1.228940941008531407e-02
9.834499999999968622e+02 1.240833358617307071e-02
9.834999999999968168e+02 1.252719702724206310e-02
9.835499999999967713e+02 1.264599973265763747e-02
9.835999999999967258e+02 1.276474170179804461e-02
9.836499999999966803e+02 1.288342293405438620e-02
9.836999999999966349e+02 1.300204342883068583e-02
9.837499999999965894e+02 1.312060318554377457e-02
9.837999999999965439e+02 1.323910220362341933e-02
9.838499999999964984e+02 1.335754048251220141e-02
9.838999999999964530e+02 1.347591802166562755e-02
9.839499999999964075e+02 1.359455801309534390e-02
9.839999999999963620e+02 1.371348366376490095e-02
9.840499999999963165e+02 1.382093257864941416e-02
9.840999999999962711e+02 1.392828886861767479e-02
9.841499999999962256e+02 1.403555257053017667e-02
9.841999999999961801e+02 1.414272372124663821e-02
9.842499999999961346e+02 1.424980235762679688e-02
9.842999999999960892e+02 1.435678851653044916e-02
9.843499999999960437e+02 1.446368223481739324e-02
9.843999999999959982e+02 1.457048354934746374e-02
9.844499999999959527e+02 1.467719249698043980e-02
9.844999999999959073e+02 1.478380911457614563e-02
9.845499999999958618e+02 1.489033343899439331e-02
9.845999999999958163e+02 1.499676550709496715e-02
9.846499999999957708e+02 1.510310535573761506e-02
9.846999999999957254e+02 1.520935302178202768e-02
9.847499999999956799e+02 1.531550854208789739e-02
9.847999999999956344e+02 1.542157195351484371e-02
9.848499999999955890e+02 1.552754329292241678e-02
9.848999999999955435e+02 1.563342259717008520e-02
9.849499999999954980e+02 1.573920990311729676e-02
9.849999999999954525e+02 1.584489867521102907e-02
9.850499999999954071e+02 1.593455619267149931e-02
9.850999999999953616e+02 1.602487491645449014e-02
9.851499999999953161e+02 1.611519472131971858e-02
9.851999999999952706e+02 1.620546002388687651e-02
9.852499999999952252e+02 1.629567083113096781e-02
9.852999999999951797e+02 1.638582715003525370e-02
9.853499999999951342e+02 1.647592898759124916e-02
9.853999999999950887e+02 1.656597635079876812e-02
9.854499999999950433e+02 1.665596924666585404e-02
9.854999999999949978e+02 1.674590768220881806e-02
9.855499999999949523e+02 1.683579166445223554e-02
9.855999999999949068e+02 1.692562120042894261e-02
9.856499999999948614e+02 1.701539629717999449e-02
9.856999999999948159e+02 1.710511696175470026e-02
9.857499999999947704e+02 1.719478320121064358e-02
9.857999999999947249e+02 1.728439502261358215e-02
9.858499999999946795e+02 1.737395243303758302e-02
9.858999999999946340e+02 1.746345543956484905e-02
9.859499999999945885e+02 1.755290404928588552e-02
9.859999999999945430e+02 1.764229826929938558e-02
9.860499999999944976e+02 1.770419902902908849e-02
9.860999999999944521e+02 1.776604513350836176e-02
9.861499999999944066e+02 1.782783660419247004e-02
9.861999999999943611e+02 1.788989441281280818e-02
9.862499999999943157e+02 1.795245367632252245e-02
9.862999999999942702e+02 1.801496454776886982e-02
9.863499999999942247e+02 1.807742704235095615e-02
9.863999999999941792e+02 1.813984117526976081e-02
9.864499999999941338e+02 1.820220696172802910e-02
9.864999999999940883e+02 1.826452441693036943e-02
9.865499999999940428e+02 1.832679355608312841e-02
9.865999999999939973e+02 1.838901439439450530e-02
9.866499999999939519e+02 1.845118694707451393e-02
9.866999999999939064e+02 1.851331122933490281e-02
9.867499999999938609e+02 1.857538725638926622e-02
9.867999999999938154e+02 1.863741504345293315e-02
9.868499999999937700e+02 1.869940243899286328e-02
9.868999999999937245e+02 1.876134727940682520e-02
9.869499999999936790e+02 1.882324401420758589e-02
9.869999999999936335e+02 1.888509265851325697e-02
9.870499999999935881e+02 1.891771792915826478e-02
9.870999999999935426e+02 1.895031532705172828e-02
9.871499999999934971e+02 1.898287672171108942e-02
9.871999999999934516e+02 1.901542129893982538e-02
9.872499999999934062e+02 1.904794905772601299e-02
9.872999999999933607e+02 1.908045999706126442e-02
9.873499999999933152e+02 1.911144674881041713e-02
9.873999999999932697e+02 1.914205061038152383e-02
9.874499999999932243e+02 1.917263121525805344e-02
9.874999999999931788e+02 1.920318856691560772e-02
9.875499999999931333e+02 1.923372266883419113e-02
9.875999999999930878e+02 1.926423352449843640e-02
9.876499999999930424e+02 1.929472113739740674e-02
9.876999999999929969e+02 1.932518551102475543e-02
9.877499999999929514e+02 1.935562664887861134e-02
9.877999999999929059e+02 1.938604455446157893e-02
9.878499999999928605e+02 1.941643923128082844e-02
9.878999999999928150e+02 1.944681068284799530e-02
9.879499999999927695e+02 1.947715891267921481e-02
9.879999999999927240e+02 1.950748392429518113e-02
9.880499999999926786e+02 1.949983484471223827e-02
9.880999999999926331e+02 1.949218756346075138e-02
9.881499999999925876e+02 1.948454208065671101e-02
9.881999999999925421e+02 1.947689839641024087e-02
9.882499999999924967e+02 1.946925651083125652e-02
9.882999999999924512e+02 1.946161642402936473e-02
9.883499999999924057e+02 1.945397813611386001e-02
9.883999999999923602e+02 1.944634164719385300e-02
9.884499999999923148e+02 1.943858970057694632e-02
9.884999999999922693e+02 1.943048126524607802e-02
9.885499999999922238e+02 1.942237493489972974e-02
9.885999999999921783e+02 1.941427070957937526e-02
9.886499999999921329e+02 1.940616858932611363e-02
9.886999999999920874e+02 1.939804395766683842e-02
9.887499999999920419e+02 1.938990432407545345e-02
9.887999999999919964e+02 1.938176683081925880e-02
9.888499999999919510e+02 1.937363147792418860e-02
9.888999999999919055e+02 1.936549826541582656e-02
9.889499999999918600e+02 1.935736719331952044e-02
9.889999999999918145e+02 1.934923826166032659e-02
9.890499999999917691e+02 1.930555017900513134e-02
9.890999999999917236e+02 1.926189309397252983e-02
9.891499999999916781e+02 1.921826699592427135e-02
9.891999999999916326e+02 1.917467187421541958e-02
9.892499999999915872e+02 1.913110771820005981e-02
9.892999999999915417e+02 1.908757451723148285e-02
9.893499999999914962e+02 1.904407226066206008e-02
9.893999999999914507e+02 1.900060093784322959e-02
9.894499999999914053e+02 1.895716053812561072e-02
9.894999999999913598e+02 1.891375105085887215e-02
9.895499999999913143e+02 1.887037246539190194e-02
9.895999999999912689e+02 1.882765805515719884e-02
9.896499999999912234e+02 1.878526119057031402e-02
9.896999999999911779e+02 1.874289114562240760e-02
9.897499999999911324e+02 1.870054791290767099e-02
9.897999999999910870e+02 1.865823148501880371e-02
9.898499999999910415e+02 1.861594185454690936e-02
9.898999999999909960e+02 1.857367901408149211e-02
9.899499999999909505e+02 1.853144295621054344e-02
9.899999999999909051e+02 1.848923367352052829e-02
9.900499999999908596e+02 1.841558923491444510e-02
9.900999999999908141e+02 1.834197289533334024e-02
9.901499999999907686e+02 1.826838465720513269e-02
9.901999999999907232e+02 1.819482452294668082e-02
9.902499999999906777e+02 1.812129249496954170e-02
9.902999999999906322e+02 1.804778857568000230e-02
9.903499999999905867e+02 1.797431276747904483e-02
9.903999999999905413e+02 1.790086507276236402e-02
9.904499999999904958e+02 1.782744549392029088e-02
9.904999999999904503e+02 1.775405403333797302e-02
9.905499999999904048e+02 1.768069069339521168e-02
9.905999999999903594e+02 1.760735547646647900e-02
9.906499999999903139e+02 1.753404838492101173e-02
9.906999999999902684e+02 1.746087682867311294e-02
9.907499999999902229e+02 1.738847984913709233e-02
9.907999999999901775e+02 1.731610397410448046e-02
9.908499999999901320e+02 1.724374920799793751e-02
9.908999999999900865e+02 1.717141555523617885e-02
9.909499999999900410e+02 1.709910302023391962e-02
9.909999999999899956e+02 1.702681160740177058e-02
9.910499999999899501e+02 1.692270458779760595e-02
9.910999999999899046e+02 1.681866427177065512e-02
9.911499999999898591e+02 1.671469063876756742e-02
9.911999999999898137e+02 1.661078366822789365e-02
9.912499999999897682e+02 1.650694333959040749e-02
9.912999999999897227e+02 1.640316963229319219e-02
9.913499999999896772e+02 1.629946252577350527e-02
9.913999999999896318e+02 1.619582199946792422e-02
9.914499999999895863e+02 1.609224803281228064e-02
9.914999999999895408e+02 1.598874060524170526e-02
9.915499999999894953e+02 1.588529969619055862e-02
9.915999999999894499e+02 1.578192528509250389e-02
9.916499999999894044e+02 1.567861735138047566e-02
9.916999999999893589e+02 1.557537587448669554e-02
9.917499999999893134e+02 1.547220083384269300e-02
9.917999999999892680e+02 1.536909220887927065e-02
9.918499999999892225e+02 1.526647408895258871e-02
9.918999999999891770e+02 1.516424160673953379e-02
9.919499999999891315e+02 1.506206548493307061e-02
9.919999999999890861e+02 1.495994571004926124e-02
9.920499999999890406e+02 1.484179962933235980e-02
9.920999999999889951e+02 1.472364888611128741e-02
9.921499999999889496e+02 1.460549349814222082e-02
9.921999999999889042e+02 1.448733348317822467e-02
9.922499999999888587e+02 1.436916885897266717e-02
9.922999999999888132e+02 1.425099964327923574e-02
9.923499999999887677e+02 1.413282585385194218e-02
9.923999999999887223e+02 1.401465355201317146e-02
9.924499999999886768e+02 1.389648058585254455e-02
9.924999999999886313e+02 1.377830292962202961e-02
9.925499999999885858e+02 1.366012060106817222e-02
9.925999999999885404e+02 1.354193361793788741e-02
9.926499999999884949e+02 1.342374199797839035e-02
9.926999999999884494e+02 1.330554575893729691e-02
9.927499999999884039e+02 1.318734491856255082e-02
9.927999999999883585e+02 1.306913949460239768e-02
9.928499999999883130e+02 1.295092950480546991e-02
9.928999999999882675e+02 1.283271496692070177e-02
9.929499999999882220e+02 1.271449589869738488e-02
9.929999999999881766e+02 1.259627231788510923e-02
9.930499999999881311e+02 1.246648531150331730e-02
9.930999999999880856e+02 1.233671342528674421e-02
9.931499999999880401e+02 1.220695667579854010e-02
9.931999999999879947e+02 1.207721507959410613e-02
9.932499999999879492e+02 1.194748865322387693e-02
9.932999999999879037e+02 1.181777741323321307e-02
9.933499999999878582e+02 1.168808137616256064e-02
9.933999999999878128e+02 1.155840055854729861e-02
9.934499999999877673e+02 1.142873497691782730e-02
9.934999999999877218e+02 1.129908464779953714e-02
9.935499999999876763e+02 1.116944958771277571e-02
9.935999999999876309e+02 1.103982981317294838e-02
9.936499999999875854e+02 1.091022534069037084e-02
9.936999999999875399e+02 1.078063618677035755e-02
9.937499999999874944e+02 1.065106236791323914e-02
9.937999999999874490e+02 1.052150390061429991e-02
9.938499999999874035e+02 1.039196080136378653e-02
9.938999999999873580e+02 1.026243308664696180e-02
9.939499999999873125e+02 1.013292077294401621e-02
9.939999999999872671e+02 1.000342387673013554e-02
9.940499999999872216e+02 9.901652367703853846e-03
9.940999999999871761e+02 9.799841952748836529e-03
9.941499999999871306e+02 9.697992649741844426e-03
9.941999999999870852e+02 9.596095886897923824e-03
9.942499999999870397e+02 9.494157386171164087e-03
9.942999999999869942e+02 9.392180300472091625e-03
9.943499999999869488e+02 9.290164647836633358e-03
9.943999999999869033e+02 9.188110446310389021e-03
9.944499999999868578e+02 9.086017713948622496e-03
9.944999999999868123e+02 8.983886468816345075e-03
9.945499999999867669e+02 8.881716728988216583e-03
9.945999999999867214e+02 8.779508512548604357e-03
9.946499999999866759e+02 8.677261837591519061e-03
9.946999999999866304e+02 8.574976722220677139e-03
9.947499999999865850e+02 8.472653184549447034e-03
9.947999999999865395e+02 8.370291242700880416e-03
9.948499999999864940e+02 8.267890914807656672e-03
9.948999999999864485e+02 8.165452219012147086e-03
9.949499999999864031e+02 8.062975173466347192e-03
9.949999999999863576e+02 7.960459796331918400e-03
9.950499999999863121e+02 8.070503602061192272e-03
9.950999999999862666e+02 8.180532925121757754e-03
9.951499999999862212e+02 8.290547739731743415e-03
9.951999999999861757e+02 8.400548020182778061e-03
9.952499999999861302e+02 8.510533740781939943e-03
9.952999999999860847e+02 8.620504875851794924e-03
9.953499999999860393e+02 8.730461399730394742e-03
9.953999999999859938e+02 8.840403286771238850e-03
9.954499999999859483e+02 8.950330511343349005e-03
9.954999999999859028e+02 9.060243047831158247e-03
9.955499999999858574e+02 9.170140870634618455e-03
9.955999999999858119e+02 9.280023954169129216e-03
9.956499999999857664e+02 9.389892272865560385e-03
9.956999999999857209e+02 9.499745801170253814e-03
9.957499999999856755e+02 9.609584513545018150e-03
9.957999999999856300e+02 9.719408384467156589e-03
9.958499999999855845e+02 9.829217388429395755e-03
9.958999999999855390e+02 9.939011499939944677e-03
9.959499999999854936e+02 1.004879069352250000e-02
9.959999999999854481e+02 1.015855494371618872e-02
9.960499999999854026e+02 1.027240067619272085e-02
9.960999999999853571e+02 1.038627286067795100e-02
9.961499999999853117e+02 1.050017455408399844e-02
9.961999999999852662e+02 1.061411142467143416e-02
9.962499999999852207e+02 1.072808343408465995e-02
9.962999999999851752e+02 1.084209054397012977e-02
9.963499999999851298e+02 1.095622001035513257e-02
9.963999999999850843e+02 1.107057201939469840e-02
9.964499999999850388e+02 1.118496470091307274e-02
9.964999999999849933e+02 1.129939802038997312e-02
9.965499999999849479e+02 1.141387194330434687e-02
9.965999999999849024e+02 1.152838643513452721e-02
9.966499999999848569e+02 1.164294146135811010e-02
9.966999999999848114e+02 1.175753698745204273e-02
9.967499999999847660e+02 1.187217297889262696e-02
9.967999999999847205e+02 1.198684940115546035e-02
9.968499999999846750e+02 1.210156621971550037e-02
9.968999999999846295e+02 1.221632340004706607e-02
9.969499999999845841e+02 1.233112090762385898e-02
9.969999999999845386e+02 1.244595870791886591e-02
9.970499999999844931e+02 1.255663212153934095e-02
9.970999999999844476e+02 1.266736976499107520e-02
9.971499999999844022e+02 1.277817162058593296e-02
9.971999999999843567e+02 1.288903767061910614e-02
9.972499999999843112e+02 1.299996789737035453e-02
9.972999999999842657e+02 1.311096228310401450e-02
9.973499999999842203e+02 1.322202081006906317e-02
9.973999999999841748e+02 1.333314346049907333e-02
9.974499999999841293e+02 1.344433021661223769e-02
9.974999999999840838e+02 1.355711529427339884e-02
9.975499999999840384e+02 1.367047474212526245e-02
9.975999999999839929e+02 1.378393185881647900e-02
9.976499999999839474e+02 1.389748666712404927e-02
9.976999999999839019e+02 1.401113918981775931e-02
9.977499999999838565e+02 1.412488944966016485e-02
9.977999999999838110e+02 1.423873746940648548e-02
9.978499999999837655e+02 1.435268327180472432e-02
9.978999999999837200e+02 1.446672687959557439e-02
9.979499999999836746e+02 1.458086831551250878e-02
9.979999999999836291e+02 1.469510760228165229e-02
9.980499999999835836e+02 1.479258410955146957e-02
9.980999999999835381e+02 1.489010156292848962e-02
9.981499999999834927e+02 1.498765992099041107e-02
9.981999999999834472e+02 1.508525914231882877e-02
9.982499999999834017e+02 1.518289918550493403e-02
9.982999999999833562e+02 1.528058000914944876e-02
9.983499999999833108e+02 1.537830157186261155e-02
9.983999999999832653e+02 1.547606383226414126e-02
9.984499999999832198e+02 1.557386674898336189e-02
9.984999999999831743e+02 1.567171028065910202e-02
9.985499999999831289e+02 1.576959438593972251e-02
9.985999999999830834e+02 1.586767699042065938e-02
9.986499999999830379e+02 1.596643473104440020e-02
9.986999999999829924e+02 1.606524272632036884e-02
9.987499999999829470e+02 1.616410094252534665e-02
9.987999999999829015e+02 1.626300934593913686e-02
9.988499999999828560e+02 1.636196790284454375e-02
9.988999999999828106e+02 1.646097657952735188e-02
9.989499999999827651e+02 1.656003534227628096e-02
9.989999999999827196e+02 1.665914415738306911e-02
9.990499999999826741e+02 1.674198494066100537e-02
9.990999999999826287e+02 1.682491146462169324e-02
9.991499999999825832e+02 1.690792375728484079e-02
9.991999999999825377e+02 1.699115914812729389e-02
9.992499999999824922e+02 1.707448910013523169e-02
9.992999999999824468e+02 1.715790632407441368e-02
9.993499999999824013e+02 1.724141085015724884e-02
9.993999999999823558e+02 1.732500270859596223e-02
9.994499999999823103e+02 1.740868192960262975e-02
9.994999999999822649e+02 1.749244854338924404e-02
9.995499999999822194e+02 1.757630258016759997e-02
9.995999999999821739e+02 1.766024407014932587e-02
9.996499999999821284e+02 1.774427304354590784e-02
9.996999999999820830e+02 1.782838953056868972e-02
9.997499999999820375e+02 1.791259356142881759e-02
9.997999999999819920e+02 1.799686099605288594e-02
9.998499999999819465e+02 1.808120119332091297e-02
9.998999999999819011e+02 1.816562866171630292e-02
